# F480M filter 
# Wavelength [microns]  |  Transmission efficiency
4.50000000       2.19857403E-05  
4.50120150       2.29177885E-05  
4.50240300       2.30672794E-05  
4.50360449       2.37212604E-05  
4.50480599       2.47696548E-05  
4.50600749       2.60927690E-05  
4.50720899       2.67095303E-05  
4.50841049       2.73451453E-05  
4.50961198       2.85500339E-05  
4.51081348       3.01722923E-05  
4.51201498       3.16974157E-05  
4.51321648       3.26864042E-05  
4.51441798       3.37149053E-05  
4.51561947       3.60368761E-05  
4.51682097       3.80871040E-05  
4.51802247       3.96474001E-05  
4.51922397       4.05899420E-05  
4.52042547       4.19942724E-05  
4.52162696       4.44593857E-05  
4.52282846       4.71620366E-05  
4.52402996       4.95226960E-05  
4.52523146       5.14550498E-05  
4.52643296       5.42260682E-05  
4.52763445       5.80805965E-05  
4.52883595       6.13201404E-05  
4.53003745       6.43335723E-05  
4.53123895       6.75980139E-05  
4.53244045       7.17582893E-05  
4.53364194       7.70773104E-05  
4.53484344       8.17484928E-05  
4.53604494       8.58410785E-05  
4.53724644       9.00844630E-05  
4.53844794       9.56432776E-05  
4.53964943       1.02057794E-04  
4.54085093       1.08158939E-04  
4.54205243       1.14208771E-04  
4.54325393       1.20948680E-04  
4.54445543       1.28618483E-04  
4.54565692       1.37343237E-04  
4.54685842       1.45282191E-04  
4.54805992       1.53489809E-04  
4.54926142       1.62691704E-04  
4.55046292       1.72788433E-04  
4.55166441       1.83221273E-04  
4.55286591       1.93340476E-04  
4.55406741       2.03757711E-04  
4.55526891       2.15720419E-04  
4.55647041       2.28626910E-04  
4.55767190       2.42343399E-04  
4.55887340       2.55050121E-04  
4.56007490       2.68916136E-04  
4.56127640       2.84661641E-04  
4.56247790       3.01602192E-04  
4.56367939       3.18725691E-04  
4.56488089       3.35979195E-04  
4.56608239       3.53993622E-04  
4.56728389       3.74707755E-04  
4.56848539       3.96234090E-04  
4.56968688       4.18421407E-04  
4.57088838       4.40376081E-04  
4.57208988       4.64902045E-04  
4.57329138       4.91726639E-04  
4.57449288       5.20109544E-04  
4.57569437       5.49085494E-04  
4.57689587       5.78916984E-04  
4.57809737       6.10026154E-04  
4.57929887       6.45482442E-04  
4.58050037       6.82510178E-04  
4.58170186       7.20950941E-04  
4.58290336       7.61114430E-04  
4.58410486       8.04340481E-04  
4.58530636       8.51348219E-04  
4.58650786       9.01038308E-04  
4.58770935       9.52164721E-04  
4.58891085       1.00623075E-03  
4.59011235       1.06350991E-03  
4.59131385       1.12740890E-03  
4.59251535       1.19401386E-03  
4.59371684       1.26329805E-03  
4.59491834       1.33701428E-03  
4.59611984       1.41622867E-03  
4.59732134       1.50141826E-03  
4.59852284       1.59194217E-03  
4.59972433       1.68556345E-03  
4.60092583       1.78540098E-03  
4.60212733       1.89288026E-03  
4.60332883       2.00914126E-03  
4.60453033       2.13192298E-03  
4.60573182       2.26073153E-03  
4.60693332       2.39793104E-03  
4.60813482       2.54516192E-03  
4.60933632       2.70232236E-03  
4.61053782       2.86993696E-03  
4.61173931       3.04603354E-03  
4.61294081       3.23556129E-03  
4.61414231       3.43904635E-03  
4.61534381       3.65634423E-03  
4.61654531       3.88684897E-03  
4.61774680       4.13020815E-03  
4.61894830       4.38914014E-03  
4.62014980       4.66719458E-03  
4.62135130       4.96313955E-03  
4.62255280       5.27865636E-03  
4.62375429       5.61417477E-03  
4.62495579       5.97071500E-03  
4.62615729       6.35176946E-03  
4.62735879       6.75650418E-03  
4.62856029       7.18521778E-03  
4.62976178       7.63862413E-03  
4.63096328       8.11880711E-03  
4.63216478       8.63110794E-03  
4.63336628       9.17626269E-03  
4.63456778       9.75699249E-03  
4.63576927       1.03710303E-02  
4.63697077       1.10210052E-02  
4.63817227       1.17117554E-02  
4.63937377       1.24428712E-02  
4.64057527       1.32137995E-02  
4.64177676       1.40244962E-02  
4.64297826       1.48721988E-02  
4.64417976       1.57664761E-02  
4.64538126       1.67164650E-02  
4.64658276       1.77058178E-02  
4.64778425       1.87427809E-02  
4.64898575       1.98279063E-02  
4.65018725       2.09590079E-02  
4.65138875       2.21462986E-02  
4.65259025       2.33871147E-02  
4.65379174       2.46521163E-02  
4.65499324       2.59571601E-02  
4.65619474       2.73218424E-02  
4.65739624       2.87262372E-02  
4.65859774       3.01650231E-02  
4.65979923       3.16451951E-02  
4.66100073       3.31521491E-02  
4.66220223       3.46803764E-02  
4.66340373       3.62422311E-02  
4.66460523       3.78327118E-02  
4.66580672       3.93977018E-02  
4.66700822       4.09891341E-02  
4.66820972       4.25891709E-02  
4.66941122       4.41606184E-02  
4.67061272       4.57262757E-02  
4.67181421       4.72771575E-02  
4.67301571       4.87906742E-02  
4.67421721       5.02674754E-02  
4.67541871       5.17252554E-02  
4.67662021       5.31184122E-02  
4.67782170       5.44425415E-02  
4.67902320       5.57338573E-02  
4.68022470       5.69298701E-02  
4.68142620       5.80609866E-02  
4.68262770       5.91461267E-02  
4.68382919       6.01539564E-02  
4.68503069       6.10643068E-02  
4.68623219       6.19255689E-02  
4.68743369       6.27152507E-02  
4.68863519       6.33942410E-02  
4.68983668       6.40276280E-02  
4.69103818       6.45851037E-02  
4.69223968       6.50725027E-02  
4.69344118       6.55094550E-02  
4.69464268       6.58903507E-02  
4.69584417       6.62041162E-02  
4.69704567       6.64785713E-02  
4.69824717       6.67845941E-02  
4.69944867       6.69386611E-02  
4.70065017       6.70695215E-02  
4.70185166       6.71695416E-02  
4.70305316       6.72382992E-02  
4.70425466       6.72857958E-02  
4.70545616       6.73142971E-02  
4.70665766       6.73213607E-02  
4.70785915       6.73150247E-02  
4.70906065       6.72998375E-02  
4.71026215       6.72704876E-02  
4.71146365       6.72360199E-02  
4.71266515       6.71905103E-02  
4.71386664       6.71332705E-02  
4.71506814       6.70711898E-02  
4.71626964       6.70102772E-02  
4.71747114       6.69501941E-02  
4.71867264       6.68871955E-02  
4.71987413       6.68209657E-02  
4.72107563       6.67338598E-02  
4.72227713       6.66434866E-02  
4.72347863       6.65509993E-02  
4.72468013       6.64625764E-02  
4.72588162       6.63788263E-02  
4.72708312       6.62995606E-02  
4.72828462       6.62243136E-02  
4.72948612       6.61494057E-02  
4.73068762       6.60735828E-02  
4.73188911       6.59928040E-02  
4.73309061       6.59132113E-02  
4.73429211       6.58556781E-02  
4.73549361       6.58308179E-02  
4.73669511       6.57562102E-02  
4.73789660       6.56812985E-02  
4.73909810       6.56074796E-02  
4.74029960       6.55375815E-02  
4.74150110       6.54694104E-02  
4.74270260       6.54010175E-02  
4.74390409       6.53233638E-02  
4.74510559       6.52389406E-02  
4.74630709       6.51485408E-02  
4.74750859       6.50580687E-02  
4.74871009       6.49727056E-02  
4.74991158       6.48926824E-02  
4.75111308       6.48145979E-02  
4.75231458       6.47364176E-02  
4.75351608       6.46529972E-02  
4.75471758       6.45684589E-02  
4.75591907       6.44826942E-02  
4.75712057       6.43964169E-02  
4.75832207       6.43102342E-02  
4.75952357       6.42247040E-02  
4.76072507       6.41409652E-02  
4.76192656       6.40595048E-02  
4.76312806       6.39765799E-02  
4.76432956       6.38925956E-02  
4.76553106       6.38058063E-02  
4.76673256       6.37154622E-02  
4.76793405       6.36183712E-02  
4.76913555       6.35171629E-02  
4.77033705       6.34146215E-02  
4.77153855       6.33128136E-02  
4.77274005       6.32150963E-02  
4.77394154       6.31209909E-02  
4.77514304       6.30370530E-02  
4.77634454       6.29562251E-02  
4.77754604       6.28801792E-02  
4.77874754       6.28066968E-02  
4.77994903       6.27344806E-02  
4.78115053       6.26627545E-02  
4.78235203       6.25930000E-02  
4.78355353       6.25251733E-02  
4.78475503       6.24595853E-02  
4.78595652       6.23932575E-02  
4.78715802       6.23260914E-02  
4.78835952       6.22558070E-02  
4.78956102       6.21848116E-02  
4.79076252       6.21142215E-02  
4.79196401       6.20450080E-02  
4.79316551       6.19776903E-02  
4.79436701       6.19114043E-02  
4.79556851       6.18468930E-02  
4.79677001       6.17827787E-02  
4.79797150       6.17187866E-02  
4.79917300       6.16528653E-02  
4.80037450       6.15868464E-02  
4.80157600       6.15215902E-02  
4.80277749       6.14579619E-02  
4.80397899       6.13968357E-02  
4.80518049       6.13371960E-02  
4.80638199       6.12787637E-02  
4.80758349       6.12191023E-02  
4.80878498       6.12098061E-02  
4.80998648       6.11583468E-02  
4.81118798       6.10892235E-02  
4.81238948       6.10189315E-02  
4.81359098       6.09489218E-02  
4.81479247       6.08806093E-02  
4.81599397       6.08128562E-02  
4.81719547       6.07403575E-02  
4.81839697       6.06646594E-02  
4.81959847       6.05775069E-02  
4.82079996       6.04892834E-02  
4.82200146       6.04004145E-02  
4.82320296       6.03135646E-02  
4.82440446       6.02294853E-02  
4.82560596       6.01478827E-02  
4.82680745       6.00696959E-02  
4.82800895       5.99919115E-02  
4.82921045       5.99145907E-02  
4.83041195       5.98296742E-02  
4.83161345       5.97417087E-02  
4.83281494       5.96498652E-02  
4.83401644       5.95575024E-02  
4.83521794       5.94669650E-02  
4.83641944       5.93776098E-02  
4.83762094       5.92879835E-02  
4.83882243       5.91979583E-02  
4.84002393       5.91059275E-02  
4.84122543       5.90148704E-02  
4.84242693       5.89249637E-02  
4.84362843       5.88311135E-02  
4.84482992       5.87336559E-02  
4.84603142       5.86312251E-02  
4.84723292       5.85237669E-02  
4.84843442       5.84158852E-02  
4.84963592       5.83075108E-02  
4.85083741       5.82007554E-02  
4.85203891       5.80951291E-02  
4.85324041       5.79959031E-02  
4.85444191       5.78989969E-02  
4.85564341       5.78036516E-02  
4.85684490       5.77049321E-02  
4.85804640       5.75993013E-02  
4.85924790       5.74898277E-02  
4.86044940       5.73756395E-02  
4.86165090       5.72621854E-02  
4.86285239       5.71505033E-02  
4.86405389       5.70350896E-02  
4.86525539       5.69170996E-02  
4.86645689       5.67959126E-02  
4.86765839       5.66724066E-02  
4.86885988       5.65475656E-02  
4.87006138       5.64195007E-02  
4.87126288       5.62843925E-02  
4.87246438       5.61443444E-02  
4.87366588       5.60016074E-02  
4.87486737       5.58593551E-02  
4.87606887       5.57244907E-02  
4.87727037       5.56429964E-02  
4.87847187       5.54963112E-02  
4.87967337       5.53369135E-02  
4.88087486       5.51782472E-02  
4.88207636       5.50204047E-02  
4.88327786       5.48646025E-02  
4.88447936       5.47091933E-02  
4.88568086       5.45544001E-02  
4.88688235       5.44001729E-02  
4.88808385       5.42462962E-02  
4.88928535       5.40921878E-02  
4.89048685       5.39380309E-02  
4.89168835       5.37854059E-02  
4.89288984       5.36358161E-02  
4.89409134       5.34912251E-02  
4.89529284       5.33503141E-02  
4.89649434       5.32136626E-02  
4.89769584       5.30801004E-02  
4.89889733       5.29548627E-02  
4.90009883       5.28384977E-02  
4.90130033       5.27292414E-02  
4.90250183       5.26261370E-02  
4.90370333       5.25214817E-02  
4.90490482       5.24160649E-02  
4.90610632       5.23064516E-02  
4.90730782       5.21962594E-02  
4.90850932       5.20854458E-02  
4.90971082       5.19711586E-02  
4.91091231       5.18526934E-02  
4.91211381       5.17296041E-02  
4.91331531       5.16009940E-02  
4.91451681       5.14681049E-02  
4.91571831       5.13189626E-02  
4.91691980       5.11519329E-02  
4.91812130       5.09612523E-02  
4.91932280       5.07433770E-02  
4.92052430       5.05075934E-02  
4.92172580       5.02435533E-02  
4.92292729       4.99474445E-02  
4.92412879       4.96296848E-02  
4.92533029       4.92670038E-02  
4.92653179       4.88760805E-02  
4.92773329       4.84560157E-02  
4.92893478       4.79918216E-02  
4.93013628       4.75105029E-02  
4.93133778       4.69818476E-02  
4.93253928       4.64172032E-02  
4.93374078       4.58346309E-02  
4.93494227       4.52200463E-02  
4.93614377       4.45828176E-02  
4.93734527       4.39312785E-02  
4.93854677       4.32374704E-02  
4.93974827       4.25466886E-02  
4.94094976       4.18367060E-02  
4.94215126       4.11684985E-02  
4.94335276       4.04540305E-02  
4.94455426       3.97336452E-02  
4.94575576       3.90143042E-02  
4.94695725       3.83041408E-02  
4.94815875       3.76052481E-02  
4.94936025       3.69335591E-02  
4.95056175       3.62753470E-02  
4.95176325       3.56373234E-02  
4.95296474       3.50163111E-02  
4.95416624       3.44142496E-02  
4.95536774       3.38353386E-02  
4.95656924       3.32780771E-02  
4.95777074       3.27371945E-02  
4.95897223       3.22188707E-02  
4.96017373       3.17145859E-02  
4.96137523       3.12326419E-02  
4.96257673       3.07726020E-02  
4.96377823       3.03298196E-02  
4.96497972       2.99019523E-02  
4.96618122       2.94860307E-02  
4.96738272       2.90790566E-02  
4.96858422       2.86851365E-02  
4.96978572       2.83019920E-02  
4.97098721       2.79292247E-02  
4.97218871       2.75588889E-02  
4.97339021       2.71923125E-02  
4.97459171       2.68299670E-02  
4.97579321       2.64711027E-02  
4.97699470       2.61168234E-02  
4.97819620       2.57640066E-02  
4.97939770       2.53966553E-02  
4.98059920       2.50322781E-02  
4.98180070       2.46536921E-02  
4.98300219       2.42731652E-02  
4.98420369       2.38889201E-02  
4.98540519       2.34929288E-02  
4.98660669       2.30886255E-02  
4.98780819       2.26749804E-02  
4.98900968       2.22469018E-02  
4.99021118       2.18197142E-02  
4.99141268       2.13742666E-02  
4.99261418       2.09233952E-02  
4.99381568       2.04550120E-02  
4.99501717       1.99752259E-02  
4.99621867       1.94897907E-02  
4.99742017       1.89947806E-02  
4.99862167       1.84936795E-02  
4.99982317       1.79896832E-02  
5.00102466       1.74623135E-02  
5.00222616       1.69603184E-02  
5.00342766       1.64440923E-02  
5.00462916       1.59299476E-02  
5.00583066       1.54152205E-02  
5.00703215       1.48958336E-02  
5.00823365       1.43804425E-02  
5.00943515       1.38742646E-02  
5.01063665       1.33559405E-02  
5.01183815       1.28501188E-02  
5.01303964       1.23408635E-02  
5.01424114       1.18462507E-02  
5.01544264       1.13528816E-02  
5.01664414       1.08700370E-02  
5.01784564       1.03990661E-02  
5.01904713       9.93911165E-03  
5.02024863       9.49184015E-03  
5.02145013       9.05774002E-03  
5.02265163       8.63064002E-03  
5.02385313       8.22168181E-03  
5.02505462       7.82547354E-03  
5.02625612       7.44617035E-03  
5.02745762       7.08037869E-03  
5.02865912       6.72778574E-03  
5.02986062       6.38811830E-03  
5.03106211       6.06214621E-03  
5.03226361       5.75151175E-03  
5.03346511       5.45586549E-03  
5.03466661       5.17319328E-03  
5.03586811       4.90599334E-03  
5.03706960       4.64779724E-03  
5.03827110       4.40245237E-03  
5.03947260       4.17023590E-03  
5.04067410       3.95014698E-03  
5.04187560       3.74122112E-03  
5.04307709       3.54258641E-03  
5.04427859       3.35316412E-03  
5.04548009       3.17316364E-03  
5.04668159       3.00576227E-03  
5.04788309       2.84757764E-03  
5.04908458       2.69724658E-03  
5.05028608       2.55444371E-03  
5.05148758       2.41835107E-03  
5.05268908       2.28912649E-03  
5.05389058       2.16794856E-03  
5.05509207       2.05468091E-03  
5.05629357       1.94722931E-03  
5.05749507       1.84585588E-03  
5.05869657       1.74915915E-03  
5.05989807       1.65720993E-03  
5.06109956       1.57158065E-03  
5.06230106       1.49154712E-03  
5.06350256       1.41575698E-03  
5.06470406       1.34368547E-03  
5.06590556       1.27513767E-03  
5.06710705       1.20976455E-03  
5.06830855       1.14904598E-03  
5.06951005       1.09269981E-03  
5.07071155       1.03890071E-03  
5.07191305       9.87308296E-04  
5.07311454       9.38088663E-04  
5.07431604       8.91317369E-04  
5.07551754       8.47370159E-04  
5.07671904       8.07176576E-04  
5.07792054       7.69936484E-04  
5.07912203       7.32711176E-04  
5.08032353       6.97240423E-04  
5.08152503       6.63613303E-04  
5.08272653       6.32063948E-04  
5.08392803       6.02905454E-04  
5.08512952       5.75492190E-04  
5.08633102       5.48718753E-04  
5.08753252       5.22700612E-04  
5.08873402       4.98217571E-04  
5.08993552       4.75194909E-04  
5.09113701       4.54272704E-04  
5.09233851       4.34661965E-04  
5.09354001       4.15062036E-04  
5.09474151       3.95779889E-04  
5.09594301       3.77602150E-04  
5.09714450       3.60689976E-04  
5.09834600       3.44835722E-04  
5.09954750       3.30394522E-04  
