# F460M filter 
# Wavelength [microns]  |  Transmission efficiency
4.38879970       1.60489690E-05  
4.38983953       1.67361397E-05  
4.39087935       1.72031373E-05  
4.39191918       1.76474344E-05  
4.39295900       1.82219812E-05  
4.39399883       1.90070888E-05  
4.39503865       2.00496246E-05  
4.39607848       2.11427106E-05  
4.39711830       2.22443189E-05  
4.39815813       2.34241169E-05  
4.39919795       2.47302404E-05  
4.40023778       2.61893724E-05  
4.40127761       2.76785318E-05  
4.40231743       2.90271927E-05  
4.40335726       3.02836955E-05  
4.40439708       3.15024196E-05  
4.40543691       3.28126161E-05  
4.40647673       3.42731113E-05  
4.40751656       3.58018217E-05  
4.40855638       3.74145923E-05  
4.40959621       3.91059832E-05  
4.41063603       4.08936954E-05  
4.41167586       4.28321476E-05  
4.41271569       4.48473041E-05  
4.41375551       4.69801070E-05  
4.41479534       4.92315127E-05  
4.41583516       5.16948826E-05  
4.41687499       5.46372401E-05  
4.41791481       5.78030782E-05  
4.41895464       6.11568919E-05  
4.41999446       6.46587453E-05  
4.42103429       6.82325929E-05  
4.42207411       7.19228091E-05  
4.42311394       7.57099293E-05  
4.42415377       7.95783307E-05  
4.42519359       8.35014830E-05  
4.42623342       8.77307551E-05  
4.42727324       9.22230867E-05  
4.42831307       9.69989303E-05  
4.42935289       1.02077401E-04  
4.43039272       1.07533990E-04  
4.43143254       1.13330865E-04  
4.43247237       1.19476503E-04  
4.43351219       1.25986502E-04  
4.43455202       1.32989572E-04  
4.43559185       1.40416305E-04  
4.43663167       1.48261803E-04  
4.43767150       1.56568760E-04  
4.43871132       1.65447449E-04  
4.43975115       1.75048861E-04  
4.44079097       1.85160473E-04  
4.44183080       1.95797638E-04  
4.44287062       2.06987679E-04  
4.44391045       2.19071685E-04  
4.44495027       2.31834583E-04  
4.44599010       2.45322426E-04  
4.44702993       2.59596655E-04  
4.44806975       2.74978888E-04  
4.44910958       2.91743783E-04  
4.45014940       3.09580859E-04  
4.45118923       3.28475392E-04  
4.45222905       3.48599473E-04  
4.45326888       3.70360872E-04  
4.45430870       3.93641844E-04  
4.45534853       4.18525999E-04  
4.45638835       4.45077685E-04  
4.45742818       4.74248043E-04  
4.45846801       5.05522740E-04  
4.45950783       5.38936721E-04  
4.46054766       5.74610501E-04  
4.46158748       6.13364078E-04  
4.46262731       6.55648912E-04  
4.46366713       7.00922728E-04  
4.46470696       7.49287262E-04  
4.46574678       8.01285226E-04  
4.46678661       8.58347709E-04  
4.46782643       9.19863361E-04  
4.46886626       9.86082108E-04  
4.46990609       1.05724477E-03  
4.47094591       1.13626519E-03  
4.47198574       1.22185266E-03  
4.47302556       1.31405159E-03  
4.47406539       1.41321585E-03  
4.47510521       1.52186493E-03  
4.47614504       1.64219850E-03  
4.47718486       1.77379942E-03  
4.47822469       1.91417749E-03  
4.47926451       2.06667629E-03  
4.48030434       2.23648180E-03  
4.48134417       2.42097792E-03  
4.48238399       2.62105256E-03  
4.48342382       2.83759728E-03  
4.48446364       3.08173472E-03  
4.48550347       3.34975953E-03  
4.48654329       3.63926871E-03  
4.48758312       3.95348799E-03  
4.48862294       4.30136890E-03  
4.48966277       4.68822434E-03  
4.49070259       5.10972648E-03  
4.49174242       5.56812191E-03  
4.49278225       6.06996275E-03  
4.49382207       6.63496311E-03  
4.49486190       7.25111958E-03  
4.49590172       7.92188829E-03  
4.49694155       8.65096191E-03  
4.49798137       9.47104274E-03  
4.49902120       1.03690673E-02  
4.50006102       1.13450313E-02  
4.50110085       1.24033527E-02  
4.50214067       1.35707612E-02  
4.50318050       1.48508550E-02  
4.50422033       1.62311329E-02  
4.50526015       1.77166907E-02  
4.50629998       1.93221315E-02  
4.50733980       2.10603469E-02  
4.50837963       2.29063067E-02  
4.50941945       2.48624562E-02  
4.51045928       2.69278383E-02  
4.51149910       2.90929811E-02  
4.51253893       3.13384913E-02  
4.51357875       3.36619939E-02  
4.51461858       3.60538141E-02  
4.51565841       3.84783899E-02  
4.51669823       4.09008137E-02  
4.51773806       4.33371265E-02  
4.51877788       4.57716196E-02  
4.51981771       4.81654745E-02  
4.52085753       5.04277473E-02  
4.52189736       5.26437275E-02  
4.52293718       5.47984129E-02  
4.52397701       5.68668406E-02  
4.52501683       5.87138303E-02  
4.52605666       6.04856608E-02  
4.52709648       6.21805547E-02  
4.52813631       6.37701142E-02  
4.52917614       6.51263824E-02  
4.53021596       6.63860590E-02  
4.53125579       6.75609428E-02  
4.53229561       6.86236161E-02  
4.53333544       6.95176977E-02  
4.53437526       7.02940191E-02  
4.53541509       7.09941605E-02  
4.53645491       7.16002224E-02  
4.53749474       7.20979975E-02  
4.53853456       7.25058383E-02  
4.53957439       7.28595137E-02  
4.54061422       7.31508490E-02  
4.54165404       7.33797865E-02  
4.54269387       7.35600372E-02  
4.54373369       7.37084997E-02  
4.54477352       7.38264470E-02  
4.54581334       7.39155247E-02  
4.54685317       7.39796774E-02  
4.54789299       7.40303769E-02  
4.54893282       7.40740190E-02  
4.54997264       7.41111206E-02  
4.55101247       7.41428419E-02  
4.55205230       7.41663235E-02  
4.55309212       7.41797929E-02  
4.55413195       7.41878844E-02  
4.55517177       7.41936439E-02  
4.55621160       7.42009331E-02  
4.55725142       7.42117167E-02  
4.55829125       7.42265396E-02  
4.55933107       7.42446400E-02  
4.56037090       7.42642821E-02  
4.56141072       7.43191606E-02  
4.56245055       7.43877686E-02  
4.56349038       7.44081106E-02  
4.56453020       7.44288159E-02  
4.56557003       7.44502481E-02  
4.56660985       7.44727145E-02  
4.56764968       7.44950074E-02  
4.56868950       7.45165510E-02  
4.56972933       7.45371099E-02  
4.57076915       7.45636004E-02  
4.57180898       7.46604786E-02  
4.57284880       7.47062370E-02  
4.57388863       7.47371215E-02  
4.57492846       7.47557876E-02  
4.57596828       7.47698236E-02  
4.57700811       7.47793547E-02  
4.57804793       7.47839973E-02  
4.57908776       7.47784998E-02  
4.58012758       7.47680550E-02  
4.58116741       7.47535531E-02  
4.58220723       7.47351676E-02  
4.58324706       7.47134810E-02  
4.58428688       7.46880736E-02  
4.58532671       7.46597126E-02  
4.58636654       7.46268020E-02  
4.58740636       7.45866405E-02  
4.58844619       7.45463418E-02  
4.58948601       7.45057833E-02  
4.59052584       7.44634574E-02  
4.59156566       7.44186960E-02  
4.59260549       7.43733564E-02  
4.59364531       7.43273550E-02  
4.59468514       7.42818696E-02  
4.59572496       7.42356531E-02  
4.59676479       7.41826201E-02  
4.59780462       7.41221281E-02  
4.59884444       7.40532510E-02  
4.59988427       7.39798680E-02  
4.60092409       7.39085030E-02  
4.60196392       7.38402493E-02  
4.60300374       7.37722170E-02  
4.60404357       7.37039992E-02  
4.60508339       7.36352960E-02  
4.60612322       7.35658165E-02  
4.60716304       7.34966854E-02  
4.60820287       7.34260786E-02  
4.60924270       7.33530462E-02  
4.61028252       7.32789417E-02  
4.61132235       7.32194006E-02  
4.61236217       7.31652272E-02  
4.61340200       7.31168785E-02  
4.61444182       7.30755213E-02  
4.61548165       7.30264281E-02  
4.61652147       7.29755826E-02  
4.61756130       7.29232036E-02  
4.61860112       7.28705411E-02  
4.61964095       7.28277637E-02  
4.62068078       7.27813821E-02  
4.62172060       7.27332316E-02  
4.62276043       7.26855123E-02  
4.62380025       7.26367006E-02  
4.62484008       7.25864006E-02  
4.62587990       7.25337503E-02  
4.62691973       7.24769299E-02  
4.62795955       7.24136173E-02  
4.62899938       7.23472257E-02  
4.63003920       7.22815013E-02  
4.63107903       7.22176193E-02  
4.63211886       7.21556296E-02  
4.63315868       7.20947127E-02  
4.63419851       7.20332089E-02  
4.63523833       7.19748671E-02  
4.63627816       7.19208795E-02  
4.63731798       7.18709038E-02  
4.63835781       7.18258819E-02  
4.63939763       7.17779222E-02  
4.64043746       7.17262510E-02  
4.64147728       7.16712804E-02  
4.64251711       7.16080671E-02  
4.64355694       7.15417337E-02  
4.64459676       7.14721095E-02  
4.64563659       7.13993103E-02  
4.64667641       7.13244399E-02  
4.64771624       7.12510886E-02  
4.64875606       7.11799062E-02  
4.64979589       7.11085171E-02  
4.65083571       7.10289032E-02  
4.65187554       7.10119639E-02  
4.65291536       7.09305362E-02  
4.65395519       7.08374900E-02  
4.65499502       7.07482331E-02  
4.65603484       7.06614304E-02  
4.65707467       7.05758183E-02  
4.65811449       7.04904989E-02  
4.65915432       7.04048851E-02  
4.66019414       7.03195531E-02  
4.66123397       7.02371958E-02  
4.66227379       7.01530236E-02  
4.66331362       7.00656750E-02  
4.66435344       6.99750907E-02  
4.66539327       6.98772894E-02  
4.66643310       6.97780307E-02  
4.66747292       6.96779145E-02  
4.66851275       6.95768401E-02  
4.66955257       6.94677534E-02  
4.67059240       6.93584410E-02  
4.67163222       6.92495170E-02  
4.67267205       6.91418397E-02  
4.67371187       6.90391049E-02  
4.67475170       6.89365314E-02  
4.67579152       6.88317664E-02  
4.67683135       6.87244817E-02  
4.67787118       6.86157524E-02  
4.67891100       6.85064953E-02  
4.67995083       6.83978196E-02  
4.68099065       6.82885036E-02  
4.68203048       6.81792397E-02  
4.68307030       6.80701421E-02  
4.68411013       6.79653913E-02  
4.68514995       6.78617786E-02  
4.68618978       6.77570525E-02  
4.68722960       6.76502888E-02  
4.68826943       6.75353780E-02  
4.68930926       6.74178679E-02  
4.69034908       6.73000475E-02  
4.69138891       6.71833382E-02  
4.69242873       6.70651502E-02  
4.69346856       6.69456980E-02  
4.69450838       6.68230777E-02  
4.69554821       6.66951212E-02  
4.69658803       6.65643736E-02  
4.69762786       6.64794291E-02  
4.69866768       6.63677728E-02  
4.69970751       6.62181818E-02  
4.70074734       6.60641155E-02  
4.70178716       6.59038414E-02  
4.70282699       6.57417146E-02  
4.70386681       6.55782982E-02  
4.70490664       6.54118752E-02  
4.70594646       6.52339501E-02  
4.70698629       6.50472657E-02  
4.70802611       6.48534755E-02  
4.70906594       6.46543290E-02  
4.71010576       6.44406597E-02  
4.71114559       6.42182257E-02  
4.71218542       6.39816138E-02  
4.71322524       6.37284654E-02  
4.71426507       6.34409270E-02  
4.71530489       6.31427061E-02  
4.71634472       6.28314365E-02  
4.71738454       6.25009365E-02  
4.71842437       6.21380514E-02  
4.71946419       6.17529512E-02  
4.72050402       6.13233132E-02  
4.72154384       6.08544878E-02  
4.72258367       6.03594907E-02  
4.72362350       5.98369808E-02  
4.72466332       5.92573892E-02  
4.72570315       5.86442169E-02  
4.72674297       5.80082457E-02  
4.72778280       5.73297137E-02  
4.72882262       5.65894871E-02  
4.72986245       5.58190204E-02  
4.73090227       5.50113185E-02  
4.73194210       5.41317661E-02  
4.73298192       5.31976196E-02  
4.73402175       5.22413794E-02  
4.73506158       5.12903899E-02  
4.73610140       5.02083924E-02  
4.73714123       4.90985582E-02  
4.73818105       4.79467068E-02  
4.73922088       4.67476117E-02  
4.74026070       4.55053938E-02  
4.74130053       4.42533016E-02  
4.74234035       4.29394911E-02  
4.74338018       4.15947178E-02  
4.74442000       4.02326575E-02  
4.74545983       3.88670174E-02  
4.74649966       3.74347004E-02  
4.74753948       3.60137500E-02  
4.74857931       3.46010177E-02  
4.74961913       3.31864772E-02  
4.75065896       3.17614770E-02  
4.75169878       3.03658146E-02  
4.75273861       2.89777708E-02  
4.75377843       2.75920110E-02  
4.75481826       2.62402370E-02  
4.75585808       2.49275562E-02  
4.75689791       2.36331203E-02  
4.75793774       2.23638400E-02  
4.75897756       2.11444300E-02  
4.76001739       1.99689872E-02  
4.76105721       1.88316633E-02  
4.76209704       1.77371774E-02  
4.76313686       1.66888396E-02  
4.76417669       1.56843879E-02  
4.76521651       1.47298866E-02  
4.76625634       1.38195291E-02  
4.76729616       1.29507716E-02  
4.76833599       1.21283264E-02  
4.76937582       1.13578604E-02  
4.77041564       1.06259179E-02  
4.77145547       9.93180456E-03  
4.77249529       9.27946675E-03  
4.77353512       8.67645703E-03  
4.77457494       8.10689547E-03  
4.77561477       7.57015435E-03  
4.77665459       7.06575214E-03  
4.77769442       6.60104116E-03  
4.77873424       6.16596207E-03  
4.77977407       5.75716918E-03  
4.78081389       5.37332241E-03  
4.78185372       5.01756268E-03  
4.78289355       4.68810015E-03  
4.78393337       4.37895528E-03  
4.78497320       4.08926203E-03  
4.78601302       3.81939232E-03  
4.78705285       3.57167382E-03  
4.78809267       3.33926018E-03  
4.78913250       3.12137357E-03  
4.79017232       2.91722038E-03  
4.79121215       2.72984129E-03  
4.79225197       2.55553487E-03  
4.79329180       2.39219159E-03  
4.79433163       2.23906081E-03  
4.79537145       2.09769507E-03  
4.79641128       1.96695267E-03  
4.79745110       1.84414920E-03  
4.79849093       1.72898181E-03  
4.79953075       1.62171650E-03  
4.80057058       1.52300049E-03  
4.80161040       1.43029626E-03  
4.80265023       1.34332791E-03  
4.80369005       1.26179152E-03  
4.80472988       1.18657217E-03  
4.80576971       1.11627534E-03  
4.80680953       1.05005868E-03  
4.80784936       9.87626836E-04  
4.80888918       9.30380131E-04  
4.80992901       8.76672730E-04  
4.81096883       8.25985068E-04  
4.81200866       7.78386006E-04  
4.81304848       7.34122426E-04  
4.81408831       6.93205619E-04  
4.81512813       6.54610720E-04  
4.81616796       6.18215087E-04  
4.81720779       5.83889668E-04  
4.81824761       5.51950203E-04  
4.81928744       5.21878406E-04  
4.82032726       4.93433887E-04  
4.82136709       4.66546314E-04  
4.82240691       4.41396055E-04  
4.82344674       4.18166224E-04  
4.82448656       3.96217222E-04  
4.82552639       3.75473720E-04  
4.82656621       3.55970104E-04  
4.82760604       3.37799647E-04  
4.82864587       3.20540467E-04  
4.82968569       3.04238935E-04  
4.83072552       2.88915927E-04  
4.83176534       2.74607153E-04  
4.83280517       2.61121537E-04  
4.83384499       2.48276375E-04  
4.83488482       2.36007688E-04  
4.83592464       2.24380236E-04  
4.83696447       2.13528081E-04  
4.83800429       2.03218338E-04  
4.83904412       1.93450549E-04  
4.84008395       1.84274112E-04  
4.84112377       1.75719034E-04  
4.84216360       1.67590647E-04  
4.84320342       1.59883376E-04  
4.84424325       1.52584117E-04  
4.84528307       1.45714731E-04  
4.84632290       1.39184493E-04  
4.84736272       1.32955965E-04  
4.84840255       1.27022743E-04  
4.84944237       1.21422731E-04  
4.85048220       1.16149192E-04  
4.85152203       1.11099203E-04  
4.85256185       1.06228866E-04  
4.85360168       1.01489561E-04  
4.85464150       9.70546367E-05  
4.85568133       9.28384504E-05  
4.85672115       8.88296981E-05  
4.85776098       8.50152033E-05  
4.85880080       8.14106512E-05  
4.85984063       7.77984131E-05  
4.86088045       7.43196889E-05  
4.86192028       7.10428925E-05  
4.86296011       6.80180196E-05  
4.86399993       6.53929568E-05  
4.86503976       6.29808059E-05  
4.86607958       6.06895817E-05  
4.86711941       5.84162264E-05  
4.86815923       5.62027813E-05  
4.86919906       5.39863646E-05  
4.87023888       5.18386230E-05  
4.87127871       4.98160144E-05  
4.87231853       4.79315845E-05  
4.87335836       4.61606446E-05  
4.87439819       4.44724406E-05  
4.87543801       4.28643623E-05  
4.87647784       4.13881938E-05  
4.87751766       3.99870461E-05  
4.87855749       3.86125629E-05  
4.87959731       3.72522960E-05  
4.88063714       3.58595435E-05  
4.88167696       3.45190052E-05  
4.88271679       3.32780720E-05  
4.88375661       3.21340417E-05  
4.88479644       3.10862295E-05  
4.88583627       3.01813760E-05  
4.88687609       2.92353455E-05  
4.88791592       2.82808329E-05  
4.88895574       2.73066295E-05  
4.88999557       2.62401679E-05  
4.89103539       2.52428465E-05  
4.89207522       2.43174882E-05  
4.89311504       2.34695831E-05  
4.89415487       2.27031933E-05  
4.89519469       2.20234461E-05  
4.89623452       2.13480305E-05  
4.89727435       2.06781420E-05  
4.89831417       2.00083654E-05  
4.89935400       1.92844058E-05  
4.90039382       1.86007503E-05  
4.90143365       1.79576903E-05  
4.90247347       1.73568713E-05  
4.90351330       1.68032816E-05  
4.90455312       1.62830372E-05  
4.90559295       1.56694051E-05  
4.90663277       1.49953387E-05  
4.90767260       1.43315205E-05  
