# F410M filter 
# Wavelength [microns]  |  Transmission efficiency
3.66453960       1.36674235E-05  
3.66626993       1.36534729E-05  
3.66800027       1.41095014E-05  
3.66973060       1.40977612E-05  
3.67146094       1.44300659E-05  
3.67319127       1.51542115E-05  
3.67492161       1.62658451E-05  
3.67665194       1.71678713E-05  
3.67838228       1.78602269E-05  
3.68011261       1.90177704E-05  
3.68184295       2.00152431E-05  
3.68357328       2.09003871E-05  
3.68530362       2.15092577E-05  
3.68703395       2.28648805E-05  
3.68876429       2.37657769E-05  
3.69049462       2.60695898E-05  
3.69222495       2.79634041E-05  
3.69395529       2.95175957E-05  
3.69568562       3.05990901E-05  
3.69741596       3.21769510E-05  
3.69914629       3.45228510E-05  
3.70087663       3.67297680E-05  
3.70260696       3.94270224E-05  
3.70433730       4.20205116E-05  
3.70606763       4.52478730E-05  
3.70779797       4.84572871E-05  
3.70952830       5.17859656E-05  
3.71125864       5.48589265E-05  
3.71298897       5.87503248E-05  
3.71471931       6.27282052E-05  
3.71644964       6.68860301E-05  
3.71817997       7.12711069E-05  
3.71991031       7.56772319E-05  
3.72164064       8.14210009E-05  
3.72337098       8.75530380E-05  
3.72510131       9.41453999E-05  
3.72683165       1.00986164E-04  
3.72856198       1.09383859E-04  
3.73029232       1.17508293E-04  
3.73202265       1.25917761E-04  
3.73375299       1.35126479E-04  
3.73548332       1.45394513E-04  
3.73721366       1.56791322E-04  
3.73894399       1.68319418E-04  
3.74067433       1.81595208E-04  
3.74240466       1.95329567E-04  
3.74413499       2.10332474E-04  
3.74586533       2.25887533E-04  
3.74759566       2.42701832E-04  
3.74932600       2.61127650E-04  
3.75105633       2.81639916E-04  
3.75278667       3.04160403E-04  
3.75451700       3.27449223E-04  
3.75624734       3.52833114E-04  
3.75797767       3.79772566E-04  
3.75970801       4.09707715E-04  
3.76143834       4.41717583E-04  
3.76316868       4.76065827E-04  
3.76489901       5.13448716E-04  
3.76662935       5.53818279E-04  
3.76835968       5.97778005E-04  
3.77009001       6.44426219E-04  
3.77182035       6.95496131E-04  
3.77355068       7.50222104E-04  
3.77528102       8.09824113E-04  
3.77701135       8.75888775E-04  
3.77874169       9.45586437E-04  
3.78047202       1.02108275E-03  
3.78220236       1.10278760E-03  
3.78393269       1.19317256E-03  
3.78566303       1.29052662E-03  
3.78739336       1.39584609E-03  
3.78912370       1.50986119E-03  
3.79085403       1.63330582E-03  
3.79258437       1.76753329E-03  
3.79431470       1.91223189E-03  
3.79604503       2.07287578E-03  
3.79777537       2.24633349E-03  
3.79950570       2.43482295E-03  
3.80123604       2.64040676E-03  
3.80296637       2.86546999E-03  
3.80469671       3.11078975E-03  
3.80642704       3.37547330E-03  
3.80815738       3.66742082E-03  
3.80988771       3.98287579E-03  
3.81161805       4.32639615E-03  
3.81334838       4.70180317E-03  
3.81507872       5.11185635E-03  
3.81680905       5.55604395E-03  
3.81853939       6.04267885E-03  
3.82026972       6.56952256E-03  
3.82200005       7.13930515E-03  
3.82373039       7.75626258E-03  
3.82546072       8.42669793E-03  
3.82719106       9.15365815E-03  
3.82892139       9.93453970E-03  
3.83065173       1.07717777E-02  
3.83238206       1.16778696E-02  
3.83411240       1.26473541E-02  
3.83584273       1.36818414E-02  
3.83757307       1.47813378E-02  
3.83930340       1.59688617E-02  
3.84103374       1.72078669E-02  
3.84276407       1.85120899E-02  
3.84449441       1.98893494E-02  
3.84622474       2.13282413E-02  
3.84795507       2.28198157E-02  
3.84968541       2.43621818E-02  
3.85141574       2.59512903E-02  
3.85314608       2.75770601E-02  
3.85487641       2.92386911E-02  
3.85660675       3.09375369E-02  
3.85833708       3.27008838E-02  
3.86006742       3.44377511E-02  
3.86179775       3.61775719E-02  
3.86352809       3.79089242E-02  
3.86525842       3.96393092E-02  
3.86698876       4.13590713E-02  
3.86871909       4.30588758E-02  
3.87044943       4.47418596E-02  
3.87217976       4.64032189E-02  
3.87391009       4.80401382E-02  
3.87564043       4.96485804E-02  
3.87737076       5.12250003E-02  
3.87910110       5.27596932E-02  
3.88083143       5.42529333E-02  
3.88256177       5.57155030E-02  
3.88429210       5.71326854E-02  
3.88602244       5.84973295E-02  
3.88775277       5.98035155E-02  
3.88948311       6.10613458E-02  
3.89121344       6.22730811E-02  
3.89294378       6.34312323E-02  
3.89467411       6.45232426E-02  
3.89640445       6.55492045E-02  
3.89813478       6.65892374E-02  
3.89986512       6.74907288E-02  
3.90159545       6.83037321E-02  
3.90332578       6.90468014E-02  
3.90505612       6.97408748E-02  
3.90678645       7.03838753E-02  
3.90851679       7.09686229E-02  
3.91024712       7.14861274E-02  
3.91197746       7.19395279E-02  
3.91370779       7.23297682E-02  
3.91543813       7.27508003E-02  
3.91716846       7.30413059E-02  
3.91889880       7.32785833E-02  
3.92062913       7.34920666E-02  
3.92235947       7.36830897E-02  
3.92408980       7.38498359E-02  
3.92582014       7.39845378E-02  
3.92755047       7.40877417E-02  
3.92928080       7.41659247E-02  
3.93101114       7.42182406E-02  
3.93274147       7.42679844E-02  
3.93447181       7.43061047E-02  
3.93620214       7.43188298E-02  
3.93793248       7.44179137E-02  
3.93966281       7.44527145E-02  
3.94139315       7.44927236E-02  
3.94312348       7.45337176E-02  
3.94485382       7.45650038E-02  
3.94658415       7.45914091E-02  
3.94831449       7.46082840E-02  
3.95004482       7.46185953E-02  
3.95177516       7.46253628E-02  
3.95350549       7.46399251E-02  
3.95523582       7.46574540E-02  
3.95696616       7.46795468E-02  
3.95869649       7.47039103E-02  
3.96042683       7.47349071E-02  
3.96215716       7.47746664E-02  
3.96388750       7.48119292E-02  
3.96561783       7.48356553E-02  
3.96734817       7.48458971E-02  
3.96907850       7.48654472E-02  
3.97080884       7.49713985E-02  
3.97253917       7.50133631E-02  
3.97426951       7.50503878E-02  
3.97599984       7.50868861E-02  
3.97773018       7.51808784E-02  
3.97946051       7.52211509E-02  
3.98119084       7.52334028E-02  
3.98292118       7.52456922E-02  
3.98465151       7.52474750E-02  
3.98638185       7.52588383E-02  
3.98811218       7.52815961E-02  
3.98984252       7.53046589E-02  
3.99157285       7.53239670E-02  
3.99330319       7.53356126E-02  
3.99503352       7.53387911E-02  
3.99676386       7.53360362E-02  
3.99849419       7.53288488E-02  
4.00022453       7.53156318E-02  
4.00195486       7.52947589E-02  
4.00368520       7.52721941E-02  
4.00541553       7.52639997E-02  
4.00714586       7.52759978E-02  
4.00887620       7.52917250E-02  
4.01060653       7.53061011E-02  
4.01233687       7.53149811E-02  
4.01406720       7.53049547E-02  
4.01579754       7.52909491E-02  
4.01752787       7.52919881E-02  
4.01925821       7.53772704E-02  
4.02098854       7.54559678E-02  
4.02271888       7.54549024E-02  
4.02444921       7.54495491E-02  
4.02617955       7.54412458E-02  
4.02790988       7.54294177E-02  
4.02964022       7.54117044E-02  
4.03137055       7.53940781E-02  
4.03310088       7.53788110E-02  
4.03483122       7.53682484E-02  
4.03656155       7.53621166E-02  
4.03829189       7.53576453E-02  
4.04002222       7.53567311E-02  
4.04175256       7.53677820E-02  
4.04348289       7.53760993E-02  
4.04521323       7.53808360E-02  
4.04694356       7.53826206E-02  
4.04867390       7.53950236E-02  
4.05040423       7.54024734E-02  
4.05213457       7.53872001E-02  
4.05386490       7.53698749E-02  
4.05559524       7.53706224E-02  
4.05732557       7.53856564E-02  
4.05905590       7.54034107E-02  
4.06078624       7.54736788E-02  
4.06251657       7.54866940E-02  
4.06424691       7.54938872E-02  
4.06597724       7.54929007E-02  
4.06770758       7.54713447E-02  
4.06943791       7.54518314E-02  
4.07116825       7.54594673E-02  
4.07289858       7.55687287E-02  
4.07462892       7.56195354E-02  
4.07635925       7.56492587E-02  
4.07808959       7.56554077E-02  
4.07981992       7.56505431E-02  
4.08155026       7.56517216E-02  
4.08328059       7.56538279E-02  
4.08501092       7.56316740E-02  
4.08674126       7.56062060E-02  
4.08847159       7.56030590E-02  
4.09020193       7.56149425E-02  
4.09193226       7.56214637E-02  
4.09366260       7.56256728E-02  
4.09539293       7.56205463E-02  
4.09712327       7.55998176E-02  
4.09885360       7.55786868E-02  
4.10058394       7.55538156E-02  
4.10231427       7.55192511E-02  
4.10404461       7.55798147E-02  
4.10577494       7.55652744E-02  
4.10750528       7.55512071E-02  
4.10923561       7.55265410E-02  
4.11096594       7.54962238E-02  
4.11269628       7.54675958E-02  
4.11442661       7.54472396E-02  
4.11615695       7.54383694E-02  
4.11788728       7.54318633E-02  
4.11961762       7.55047005E-02  
4.12134795       7.54868537E-02  
4.12307829       7.54620419E-02  
4.12480862       7.54364888E-02  
4.12653896       7.54141355E-02  
4.12826929       7.53984423E-02  
4.12999963       7.53883237E-02  
4.13172996       7.53674080E-02  
4.13346030       7.53479761E-02  
4.13519063       7.53287506E-02  
4.13692096       7.53069343E-02  
4.13865130       7.52822418E-02  
4.14038163       7.52668277E-02  
4.14211197       7.52814653E-02  
4.14384230       7.53088367E-02  
4.14557264       7.53392473E-02  
4.14730297       7.53894582E-02  
4.14903331       7.54736884E-02  
4.15076364       7.54970799E-02  
4.15249398       7.55205066E-02  
4.15422431       7.55457908E-02  
4.15595465       7.55636857E-02  
4.15768498       7.55706482E-02  
4.15941532       7.55845375E-02  
4.16114565       7.57029879E-02  
4.16287598       7.57478826E-02  
4.16460632       7.57903550E-02  
4.16633665       7.58182876E-02  
4.16806699       7.58366031E-02  
4.16979732       7.58545539E-02  
4.17152766       7.58749409E-02  
4.17325799       7.58922692E-02  
4.17498833       7.59042352E-02  
4.17671866       7.59152459E-02  
4.17844900       7.59295632E-02  
4.18017933       7.59425641E-02  
4.18190967       7.59489178E-02  
4.18364000       7.59548421E-02  
4.18537034       7.59612851E-02  
4.18710067       7.59636929E-02  
4.18883100       7.59607336E-02  
4.19056134       7.59417030E-02  
4.19229167       7.59019296E-02  
4.19402201       7.59425351E-02  
4.19575234       7.59081232E-02  
4.19748268       7.58733170E-02  
4.19921301       7.58265268E-02  
4.20094335       7.57737055E-02  
4.20267368       7.57201792E-02  
4.20440402       7.57443687E-02  
4.20613435       7.56820038E-02  
4.20786469       7.56155270E-02  
4.20959502       7.55355002E-02  
4.21132536       7.54586781E-02  
4.21305569       7.54012951E-02  
4.21478602       7.53357057E-02  
4.21651636       7.52542851E-02  
4.21824669       7.51710307E-02  
4.21997703       7.50935772E-02  
4.22170736       7.50129490E-02  
4.22343770       7.49339849E-02  
4.22516803       7.48559425E-02  
4.22689837       7.47745792E-02  
4.22862870       7.46849477E-02  
4.23035904       7.45839477E-02  
4.23208937       7.44762457E-02  
4.23381971       7.43664175E-02  
4.23555004       7.42482301E-02  
4.23728038       7.41192800E-02  
4.23901071       7.39673195E-02  
4.24074104       7.38011908E-02  
4.24247138       7.36739397E-02  
4.24420171       7.35436384E-02  
4.24593205       7.33155963E-02  
4.24766238       7.31074856E-02  
4.24939272       7.28455946E-02  
4.25112305       7.24955736E-02  
4.25285339       7.20882565E-02  
4.25458372       7.16392917E-02  
4.25631406       7.11454249E-02  
4.25804439       7.05882661E-02  
4.25977473       6.99670753E-02  
4.26150506       6.91302898E-02  
4.26323540       6.81899809E-02  
4.26496573       6.71743744E-02  
4.26669606       6.60879452E-02  
4.26842640       6.49096601E-02  
4.27015673       6.36384519E-02  
4.27188707       6.22495678E-02  
4.27361740       6.08421247E-02  
4.27534774       5.94654035E-02  
4.27707807       5.81402830E-02  
4.27880841       5.68217598E-02  
4.28053874       5.55812565E-02  
4.28226908       5.45736937E-02  
4.28399941       5.34404190E-02  
4.28572975       5.21890443E-02  
4.28746008       5.08575774E-02  
4.28919042       4.94811125E-02  
4.29092075       4.79160708E-02  
4.29265108       4.61937467E-02  
4.29438142       4.45375893E-02  
4.29611175       4.28400977E-02  
4.29784209       4.11054438E-02  
4.29957242       3.93812828E-02  
4.30130276       3.76693883E-02  
4.30303309       3.59707032E-02  
4.30476343       3.43042442E-02  
4.30649376       3.26776109E-02  
4.30822410       3.10873682E-02  
4.30995443       2.95398431E-02  
4.31168477       2.80427728E-02  
4.31341510       2.65992941E-02  
4.31514544       2.52018343E-02  
4.31687577       2.38541176E-02  
4.31860611       2.25592712E-02  
4.32033644       2.13201543E-02  
4.32206677       2.01287893E-02  
4.32379711       1.89841401E-02  
4.32552744       1.78913363E-02  
4.32725778       1.68501700E-02  
4.32898811       1.58576000E-02  
4.33071845       1.49094847E-02  
4.33244878       1.40091755E-02  
4.33417912       1.31517172E-02  
4.33590945       1.23373887E-02  
4.33763979       1.15664537E-02  
4.33937012       1.08384344E-02  
4.34110046       1.01484687E-02  
4.34283079       9.49179699E-03  
4.34456113       8.87299351E-03  
4.34629146       8.29825269E-03  
4.34802179       7.74630772E-03  
4.34975213       7.22681951E-03  
4.35148246       6.74566451E-03  
4.35321280       6.29136393E-03  
4.35494313       5.85819781E-03  
4.35667347       5.45487540E-03  
4.35840380       5.07621988E-03  
4.36013414       4.71996903E-03  
4.36186447       4.38872425E-03  
4.36359481       4.08047521E-03  
4.36532514       3.79051405E-03  
4.36705548       3.52045248E-03  
4.36878581       3.27031959E-03  
4.37051615       3.03642588E-03  
4.37224648       2.81800139E-03  
4.37397681       2.61456702E-03  
4.37570715       2.42621671E-03  
4.37743748       2.25189716E-03  
4.37916782       2.09020213E-03  
4.38089815       1.93892378E-03  
4.38262849       1.79862410E-03  
4.38435882       1.66899953E-03  
4.38608916       1.54756494E-03  
4.38781949       1.43647751E-03  
4.38954983       1.33384859E-03  
4.39128016       1.23755019E-03  
4.39301050       1.14893944E-03  
4.39474083       1.06795788E-03  
4.39647117       9.91960289E-04  
4.39820150       9.21352800E-04  
4.39993183       8.57473426E-04  
4.40166217       7.97935781E-04  
4.40339250       7.42167990E-04  
4.40512284       6.91559256E-04  
4.40685317       6.44939153E-04  
4.40858351       6.00019650E-04  
4.41031384       5.59303018E-04  
4.41204418       5.22304537E-04  
4.41377451       4.87931529E-04  
4.41550485       4.56365169E-04  
4.41723518       4.26800195E-04  
4.41896552       3.98741639E-04  
4.42069585       3.73124124E-04  
4.42242619       3.49760292E-04  
4.42415652       3.27335653E-04  
4.42588685       3.06488473E-04  
4.42761719       2.87680667E-04  
4.42934752       2.69474246E-04  
4.43107786       2.52787208E-04  
4.43280819       2.37890799E-04  
4.43453853       2.23389878E-04  
4.43626886       2.09894950E-04  
4.43799920       1.97912716E-04  
4.43972953       1.86313176E-04  
4.44145987       1.75197528E-04  
4.44319020       1.65378045E-04  
4.44492054       1.55788122E-04  
4.44665087       1.46140835E-04  
4.44838121       1.38055478E-04  
4.45011154       1.31244365E-04  
4.45184187       1.24140650E-04  
4.45357221       1.17732217E-04  
4.45530254       1.11555165E-04  
4.45703288       1.05038929E-04  
4.45876321       9.90518683E-05  
4.46049355       9.37833946E-05  
4.46222388       8.85366607E-05  
4.46395422       8.38794014E-05  
4.46568455       8.03671740E-05  
4.46741489       7.63794775E-05  
4.46914522       7.19881918E-05  
4.47087556       6.82475834E-05  
4.47260589       6.42685035E-05  
4.47433623       6.06581525E-05  
4.47606656       5.82470568E-05  
4.47779689       5.62609978E-05  
4.47952723       5.34895649E-05  
4.48125756       5.09099891E-05  
4.48298790       4.87844965E-05  
4.48471823       4.60182620E-05  
4.48644857       4.37044095E-05  
4.48817890       4.19860226E-05  
4.48990924       3.96367203E-05  
4.49163957       3.71979693E-05  
4.49336991       3.53477944E-05  
4.49510024       3.36852023E-05  
4.49683058       3.19588919E-05  
4.49856091       3.11206103E-05  
4.50029125       3.00707156E-05  
4.50202158       2.84298694E-05  
4.50375191       2.75371879E-05  
4.50548225       2.66414246E-05  
4.50721258       2.50316250E-05  
4.50894292       2.34855892E-05  
4.51067325       2.25871762E-05  
4.51240359       2.13513650E-05  
4.51413392       2.01210832E-05  
4.51586426       1.95986118E-05  
4.51759459       1.79948870E-05  
4.51932493       1.61986590E-05  
4.52105526       1.55588058E-05  
4.52278560       1.52265021E-05  
4.52451593       1.44509009E-05  
4.52624627       1.38193270E-05  
4.52797660       1.37326966E-05  
