# F430M filter 
# Wavelength [microns]  |  Transmission efficiency
4.06180170       1.39085814E-05  
4.06270613       1.46179382E-05  
4.06361056       1.53441713E-05  
4.06451499       1.60849869E-05  
4.06541943       1.66586452E-05  
4.06632386       1.72526872E-05  
4.06722829       1.78701911E-05  
4.06813272       1.86752133E-05  
4.06903715       1.96078977E-05  
4.06994158       2.06586923E-05  
4.07084602       2.18409707E-05  
4.07175045       2.30145501E-05  
4.07265488       2.42020009E-05  
4.07355931       2.54532951E-05  
4.07446374       2.68353268E-05  
4.07536817       2.83434938E-05  
4.07627261       3.00595985E-05  
4.07717704       3.18504449E-05  
4.07808147       3.37027101E-05  
4.07898590       3.56105616E-05  
4.07989033       3.76018605E-05  
4.08079476       3.96778641E-05  
4.08169920       4.20458325E-05  
4.08260363       4.45932816E-05  
4.08350806       4.72915515E-05  
4.08441249       5.02358559E-05  
4.08531692       5.33198303E-05  
4.08622135       5.65217110E-05  
4.08712579       5.99376584E-05  
4.08803022       6.35689883E-05  
4.08893465       6.74028047E-05  
4.08983908       7.17231458E-05  
4.09074351       7.63157460E-05  
4.09164794       8.11239170E-05  
4.09255238       8.62782256E-05  
4.09345681       9.17290606E-05  
4.09436124       9.74255859E-05  
4.09526567       1.03581263E-04  
4.09617010       1.10108832E-04  
4.09707453       1.16943536E-04  
4.09797897       1.24360212E-04  
4.09888340       1.32357486E-04  
4.09978783       1.40789215E-04  
4.10069226       1.49894037E-04  
4.10159669       1.59576293E-04  
4.10250112       1.69725457E-04  
4.10340556       1.80810816E-04  
4.10430999       1.92889112E-04  
4.10521442       2.05593089E-04  
4.10611885       2.19633719E-04  
4.10702328       2.34786132E-04  
4.10792771       2.50759056E-04  
4.10883215       2.68055023E-04  
4.10973658       2.86649735E-04  
4.11064101       3.06242681E-04  
4.11154544       3.27485968E-04  
4.11244987       3.50512904E-04  
4.11335430       3.74921140E-04  
4.11425874       4.01688799E-04  
4.11516317       4.30910297E-04  
4.11606760       4.61893994E-04  
4.11697203       4.95636637E-04  
4.11787646       5.32419600E-04  
4.11878089       5.71908732E-04  
4.11968533       6.14578357E-04  
4.12058976       6.61201324E-04  
4.12149419       7.10776094E-04  
4.12239862       7.64934797E-04  
4.12330305       8.24381007E-04  
4.12420748       8.87584051E-04  
4.12511192       9.56505515E-04  
4.12601635       1.03244019E-03  
4.12692078       1.11324735E-03  
4.12782521       1.20127686E-03  
4.12872964       1.29844247E-03  
4.12963407       1.40205600E-03  
4.13053851       1.51510531E-03  
4.13144294       1.64045221E-03  
4.13234737       1.77420431E-03  
4.13325180       1.91996112E-03  
4.13415623       2.08204126E-03  
4.13506066       2.25521113E-03  
4.13596510       2.44397047E-03  
4.13686953       2.65484343E-03  
4.13777396       2.88028529E-03  
4.13867839       3.12561631E-03  
4.13958282       3.40004551E-03  
4.14048725       3.69409661E-03  
4.14139169       4.01449716E-03  
4.14229612       4.37390985E-03  
4.14320055       4.75874525E-03  
4.14410498       5.17693915E-03  
4.14500941       5.64628982E-03  
4.14591384       6.14820922E-03  
4.14681828       6.69171508E-03  
4.14772271       7.30670746E-03  
4.14862714       7.96008900E-03  
4.14953157       8.66304803E-03  
4.15043600       9.44973308E-03  
4.15134043       1.02864509E-02  
4.15224487       1.11843670E-02  
4.15314930       1.21813315E-02  
4.15405373       1.32376020E-02  
4.15495816       1.43643422E-02  
4.15586259       1.56063595E-02  
4.15676702       1.69144695E-02  
4.15767146       1.82989135E-02  
4.15857589       1.98021031E-02  
4.15948032       2.13701887E-02  
4.16038475       2.30214171E-02  
4.16128918       2.47999797E-02  
4.16219361       2.66233571E-02  
4.16309805       2.85126588E-02  
4.16400248       3.05009509E-02  
4.16490691       3.25274601E-02  
4.16581134       3.45930928E-02  
4.16671577       3.66852983E-02  
4.16762020       3.87914306E-02  
4.16852464       4.09123531E-02  
4.16942907       4.30379039E-02  
4.17033350       4.51530921E-02  
4.17123793       4.72570754E-02  
4.17214236       4.92983436E-02  
4.17304679       5.12761436E-02  
4.17395123       5.31890936E-02  
4.17485566       5.50076590E-02  
4.17576009       5.67703220E-02  
4.17666452       5.84770033E-02  
4.17756895       6.00633610E-02  
4.17847338       6.15806964E-02  
4.17937782       6.30292249E-02  
4.18028225       6.42979363E-02  
4.18118668       6.54977251E-02  
4.18209111       6.66315352E-02  
4.18299554       6.76449290E-02  
4.18389997       6.85939238E-02  
4.18480441       6.94824962E-02  
4.18570884       7.02572980E-02  
4.18661327       7.09528266E-02  
4.18751770       7.15786407E-02  
4.18842213       7.21202826E-02  
4.18932656       7.26130415E-02  
4.19023100       7.30619696E-02  
4.19113543       7.34336392E-02  
4.19203986       7.37592670E-02  
4.19294429       7.40455952E-02  
4.19384872       7.43452874E-02  
4.19475315       7.45634298E-02  
4.19565759       7.47492472E-02  
4.19656202       7.48999332E-02  
4.19746645       7.50287298E-02  
4.19837088       7.51395023E-02  
4.19927531       7.52218805E-02  
4.20017974       7.52883883E-02  
4.20108418       7.53426479E-02  
4.20198861       7.53833016E-02  
4.20289304       7.54161760E-02  
4.20379747       7.55095140E-02  
4.20470190       7.55451671E-02  
4.20560633       7.55582106E-02  
4.20651077       7.55668928E-02  
4.20741520       7.55693095E-02  
4.20831963       7.55680218E-02  
4.20922406       7.55643056E-02  
4.21012849       7.55587577E-02  
4.21103292       7.55560977E-02  
4.21193736       7.55560272E-02  
4.21284179       7.55655721E-02  
4.21374622       7.55734794E-02  
4.21465065       7.55791578E-02  
4.21555508       7.55783273E-02  
4.21645951       7.55749208E-02  
4.21736395       7.55711981E-02  
4.21826838       7.55713805E-02  
4.21917281       7.55764742E-02  
4.22007724       7.55829715E-02  
4.22098167       7.55858387E-02  
4.22188610       7.55898922E-02  
4.22279054       7.55951488E-02  
4.22369497       7.56031127E-02  
4.22459940       7.56130723E-02  
4.22550383       7.56230281E-02  
4.22640826       7.56303470E-02  
4.22731269       7.56380624E-02  
4.22821713       7.56454759E-02  
4.22912156       7.56515045E-02  
4.23002599       7.56546423E-02  
4.23093042       7.56558834E-02  
4.23183485       7.56533336E-02  
4.23273928       7.56532431E-02  
4.23364372       7.56536049E-02  
4.23454815       7.56530186E-02  
4.23545258       7.56496201E-02  
4.23635701       7.56439004E-02  
4.23726144       7.56342983E-02  
4.23816587       7.56214211E-02  
4.23907031       7.56065364E-02  
4.23997474       7.55889675E-02  
4.24087917       7.55719032E-02  
4.24178360       7.55567358E-02  
4.24268803       7.56046449E-02  
4.24359246       7.56233738E-02  
4.24449690       7.56106093E-02  
4.24540133       7.55858084E-02  
4.24630576       7.55541516E-02  
4.24721019       7.55372007E-02  
4.24811462       7.55658483E-02  
4.24901905       7.55293452E-02  
4.24992349       7.54865818E-02  
4.25082792       7.54300414E-02  
4.25173235       7.53633054E-02  
4.25263678       7.52924988E-02  
4.25354121       7.52176258E-02  
4.25444564       7.51399919E-02  
4.25535008       7.50585212E-02  
4.25625451       7.49709697E-02  
4.25715894       7.48747249E-02  
4.25806337       7.47726381E-02  
4.25896780       7.46628808E-02  
4.25987223       7.45389500E-02  
4.26077667       7.43243595E-02  
4.26168110       7.40827354E-02  
4.26258553       7.38230488E-02  
4.26348996       7.35539618E-02  
4.26439439       7.32737212E-02  
4.26529882       7.29687199E-02  
4.26620326       7.26468071E-02  
4.26710769       7.23039567E-02  
4.26801212       7.19125342E-02  
4.26891655       7.14989148E-02  
4.26982098       7.10606580E-02  
4.27072541       7.05596494E-02  
4.27162985       7.00454863E-02  
4.27253428       6.95281737E-02  
4.27343871       6.90618376E-02  
4.27434314       6.86826159E-02  
4.27524757       6.84085029E-02  
4.27615200       6.83387394E-02  
4.27705644       6.83780688E-02  
4.27796087       6.85353502E-02  
4.27886530       6.88870499E-02  
4.27976973       6.92538413E-02  
4.28067416       6.98960536E-02  
4.28157859       7.05215765E-02  
4.28248303       7.10819278E-02  
4.28338746       7.15730984E-02  
4.28429189       7.19244892E-02  
4.28519632       7.22112129E-02  
4.28610075       7.24321494E-02  
4.28700518       7.26230480E-02  
4.28790962       7.28074412E-02  
4.28881405       7.29854570E-02  
4.28971848       7.31644156E-02  
4.29062291       7.31922266E-02  
4.29152734       7.31517350E-02  
4.29243177       7.31121338E-02  
4.29333621       7.31014181E-02  
4.29424064       7.31388737E-02  
4.29514507       7.31695321E-02  
4.29604950       7.31359111E-02  
4.29695393       7.31015283E-02  
4.29785836       7.30674232E-02  
4.29876280       7.30337008E-02  
4.29966723       7.30002662E-02  
4.30057166       7.29614430E-02  
4.30147609       7.29169059E-02  
4.30238052       7.28704096E-02  
4.30328495       7.28282924E-02  
4.30418939       7.27894171E-02  
4.30509382       7.27532568E-02  
4.30599825       7.27204783E-02  
4.30690268       7.26860326E-02  
4.30780711       7.26507380E-02  
4.30871154       7.26188394E-02  
4.30961598       7.25917771E-02  
4.31052041       7.25684958E-02  
4.31142484       7.25513977E-02  
4.31232927       7.25366784E-02  
4.31323370       7.25235629E-02  
4.31413813       7.25109856E-02  
4.31504257       7.24995454E-02  
4.31594700       7.24892228E-02  
4.31685143       7.24818341E-02  
4.31775586       7.24782684E-02  
4.31866029       7.24778640E-02  
4.31956472       7.24833198E-02  
4.32046916       7.24890306E-02  
4.32137359       7.24948757E-02  
4.32227802       7.24991204E-02  
4.32318245       7.25017963E-02  
4.32408688       7.25038180E-02  
4.32499131       7.25067584E-02  
4.32589575       7.25098102E-02  
4.32680018       7.25130940E-02  
4.32770461       7.25172619E-02  
4.32860904       7.25232135E-02  
4.32951347       7.25291615E-02  
4.33041790       7.25310417E-02  
4.33132234       7.25262094E-02  
4.33222677       7.25172022E-02  
4.33313120       7.25025832E-02  
4.33403563       7.24870318E-02  
4.33494006       7.24709795E-02  
4.33584449       7.24545772E-02  
4.33674893       7.24339776E-02  
4.33765336       7.24105874E-02  
4.33855779       7.23833016E-02  
4.33946222       7.23556534E-02  
4.34036665       7.23258790E-02  
4.34127108       7.22897641E-02  
4.34217552       7.22426502E-02  
4.34307995       7.21880824E-02  
4.34398438       7.21225498E-02  
4.34488881       7.20504662E-02  
4.34579324       7.20376766E-02  
4.34669767       7.19744838E-02  
4.34760211       7.18896689E-02  
4.34850654       7.18006792E-02  
4.34941097       7.17063640E-02  
4.35031540       7.16124144E-02  
4.35121983       7.15344563E-02  
4.35212426       7.14977135E-02  
4.35302870       7.13894871E-02  
4.35393313       7.12756929E-02  
4.35483756       7.11536331E-02  
4.35574199       7.10291401E-02  
4.35664642       7.09038234E-02  
4.35755085       7.07780089E-02  
4.35845529       7.06506892E-02  
4.35935972       7.05221831E-02  
4.36026415       7.03922940E-02  
4.36116858       7.02683669E-02  
4.36207301       7.01442172E-02  
4.36297744       7.00174736E-02  
4.36388188       6.98856964E-02  
4.36478631       6.97497492E-02  
4.36569074       6.96076795E-02  
4.36659517       6.94650215E-02  
4.36749960       6.93191032E-02  
4.36840403       6.91674159E-02  
4.36930847       6.90032848E-02  
4.37021290       6.88262492E-02  
4.37111733       6.86302335E-02  
4.37202176       6.84028577E-02  
4.37292619       6.81575291E-02  
4.37383062       6.78902051E-02  
4.37473506       6.75881710E-02  
4.37563949       6.72556046E-02  
4.37654392       6.68822955E-02  
4.37744835       6.64487099E-02  
4.37835278       6.59805364E-02  
4.37925721       6.54712353E-02  
4.38016165       6.48933691E-02  
4.38106608       6.42492670E-02  
4.38197051       6.35201395E-02  
4.38287494       6.27025402E-02  
4.38377937       6.18360046E-02  
4.38468380       6.09137226E-02  
4.38558824       5.98777339E-02  
4.38649267       5.87619350E-02  
4.38739710       5.75541886E-02  
4.38830153       5.62456852E-02  
4.38920596       5.48864047E-02  
4.39011039       5.34722522E-02  
4.39101483       5.19088374E-02  
4.39191926       5.02835819E-02  
4.39282369       4.85941678E-02  
4.39372812       4.68394648E-02  
4.39463255       4.50593859E-02  
4.39553698       4.32533179E-02  
4.39644142       4.13272033E-02  
4.39734585       3.93961474E-02  
4.39825028       3.74610823E-02  
4.39915471       3.55403563E-02  
4.40005914       3.36242257E-02  
4.40096357       3.17126227E-02  
4.40186801       2.98130728E-02  
4.40277244       2.79559296E-02  
4.40367687       2.61411573E-02  
4.40458130       2.44194617E-02  
4.40548573       2.27506294E-02  
4.40639016       2.11212730E-02  
4.40729460       1.95907564E-02  
4.40819903       1.81287159E-02  
4.40910346       1.67315176E-02  
4.41000789       1.54530038E-02  
4.41091232       1.42374249E-02  
4.41181675       1.30806985E-02  
4.41272119       1.20409845E-02  
4.41362562       1.10726333E-02  
4.41453005       1.01570777E-02  
4.41543448       9.33358685E-03  
4.41633891       8.56501085E-03  
4.41724334       7.84463632E-03  
4.41814778       7.20516669E-03  
4.41905221       6.61102660E-03  
4.41995664       6.05573674E-03  
4.42086107       5.56509379E-03  
4.42176550       5.11062023E-03  
4.42266993       4.68629609E-03  
4.42357437       4.31008171E-03  
4.42447880       3.96282953E-03  
4.42538323       3.63916918E-03  
4.42628766       3.35296525E-03  
4.42719209       3.08863712E-03  
4.42809652       2.84169690E-03  
4.42900096       2.62168219E-03  
4.42990539       2.41946695E-03  
4.43080982       2.23094260E-03  
4.43171425       2.06283364E-03  
4.43261868       1.90778563E-03  
4.43352311       1.76267851E-03  
4.43442755       1.63275689E-03  
4.43533198       1.51299725E-03  
4.43623641       1.40080018E-03  
4.43714084       1.29989540E-03  
4.43804527       1.20688254E-03  
4.43894970       1.11969368E-03  
4.43985414       1.04136607E-03  
4.44075857       9.69039316E-04  
4.44166300       9.01000163E-04  
4.44256743       8.39309049E-04  
4.44347186       7.82470378E-04  
4.44437629       7.28992058E-04  
4.44528073       6.80340072E-04  
4.44618516       6.35424369E-04  
4.44708959       5.93110273E-04  
4.44799402       5.54636570E-04  
4.44889845       5.19226219E-04  
4.44980288       4.85775585E-04  
4.45070732       4.54901089E-04  
4.45161175       4.26190253E-04  
4.45251618       3.98997908E-04  
4.45342061       3.74104374E-04  
4.45432504       3.51157892E-04  
4.45522947       3.29442125E-04  
4.45613391       3.09380949E-04  
4.45703834       2.90718126E-04  
4.45794277       2.73014767E-04  
4.45884720       2.56730360E-04  
4.45975163       2.41705035E-04  
4.46065606       2.27473311E-04  
4.46156050       2.14326793E-04  
4.46246493       2.02143094E-04  
4.46336936       1.90558283E-04  
4.46427379       1.79789709E-04  
4.46517822       1.69803555E-04  
4.46608265       1.60294335E-04  
4.46698709       1.51423455E-04  
4.46789152       1.43118259E-04  
4.46879595       1.35174540E-04  
4.46970038       1.27725467E-04  
4.47060481       1.20835361E-04  
4.47150924       1.14272721E-04  
4.47241368       1.08132760E-04  
4.47331811       1.02423784E-04  
4.47422254       9.69659260E-05  
4.47512697       9.18300994E-05  
4.47603140       8.71096611E-05  
4.47693583       8.26622985E-05  
4.47784027       7.83500012E-05  
4.47874470       7.43089238E-05  
4.47964913       7.04453359E-05  
4.48055356       6.68147877E-05  
4.48145799       6.35089408E-05  
4.48236242       6.03455553E-05  
4.48326686       5.73359957E-05  
4.48417129       5.44764616E-05  
4.48507572       5.17834406E-05  
4.48598015       4.92190824E-05  
4.48688458       4.69227139E-05  
4.48778901       4.47720288E-05  
4.48869345       4.27943624E-05  
4.48959788       4.08282736E-05  
4.49050231       3.88696733E-05  
4.49140674       3.69201142E-05  
4.49231117       3.50186802E-05  
4.49321560       3.31580242E-05  
4.49412004       3.13483181E-05  
4.49502447       2.97612308E-05  
4.49592890       2.83028451E-05  
4.49683333       2.69921946E-05  
4.49773776       2.60219657E-05  
4.49864219       2.50978929E-05  
4.49954663       2.41994178E-05  
4.50045106       2.32417317E-05  
4.50135549       2.22243521E-05  
4.50225992       2.11373654E-05  
4.50316435       2.02618465E-05  
4.50406878       1.94621383E-05  
4.50497322       1.87393612E-05  
4.50587765       1.81507600E-05  
4.50678208       1.74859231E-05  
4.50768651       1.67295476E-05  
4.50859094       1.60530883E-05  
4.50949537       1.54194459E-05  
4.51039981       1.48296865E-05  
4.51130424       1.43077559E-05  
4.51220867       1.37585723E-05  
4.51311310       1.31806897E-05  
