# F250M filter 
# Wavelength [microns]  |  Transmission efficiency
2.37551060       1.59655436E-05  
2.37607859       1.86902242E-05  
2.37664658       2.14194837E-05  
2.37721458       2.43057205E-05  
2.37778257       2.72153320E-05  
2.37835056       3.09238602E-05  
2.37891855       3.48746914E-05  
2.37948654       3.95706756E-05  
2.38005454       4.46636424E-05  
2.38062253       5.03713481E-05  
2.38119052       5.65854262E-05  
2.38175851       6.34155076E-05  
2.38232650       7.11001985E-05  
2.38289450       7.93782086E-05  
2.38346249       8.89555707E-05  
2.38403048       9.90261661E-05  
2.38459847       1.11070275E-04  
2.38516646       1.23344958E-04  
2.38573446       1.38177850E-04  
2.38630245       1.53001796E-04  
2.38687044       1.71941825E-04  
2.38743843       1.91095215E-04  
2.38800642       2.14477475E-04  
2.38857442       2.38431514E-04  
2.38914241       2.67237358E-04  
2.38971040       2.97730584E-04  
2.39027839       3.33484068E-04  
2.39084638       3.72367246E-04  
2.39141438       4.16853777E-04  
2.39198237       4.66663485E-04  
2.39255036       5.22488164E-04  
2.39311835       5.87376388E-04  
2.39368634       6.57757865E-04  
2.39425434       7.42166385E-04  
2.39482233       8.31373046E-04  
2.39539032       9.41977285E-04  
2.39595831       1.05441761E-03  
2.39652630       1.20052002E-03  
2.39709430       1.34670283E-03  
2.39766229       1.53779788E-03  
2.39823028       1.73186480E-03  
2.39879827       1.97910632E-03  
2.39936626       2.23774025E-03  
2.39993426       2.55700139E-03  
2.40050225       2.90096934E-03  
2.40107024       3.31212770E-03  
2.40163823       3.76885916E-03  
2.40220622       4.29641916E-03  
2.40277422       4.89993553E-03  
2.40334221       5.57196220E-03  
2.40391020       6.36095120E-03  
2.40447819       7.20815441E-03  
2.40504618       8.22413742E-03  
2.40561418       9.27814878E-03  
2.40618217       1.05590992E-02  
2.40675016       1.18491198E-02  
2.40731815       1.34230923E-02  
2.40788614       1.49991121E-02  
2.40845414       1.68468141E-02  
2.40902213       1.87232081E-02  
2.40959012       2.08124577E-02  
2.41015811       2.29583008E-02  
2.41072610       2.52367984E-02  
2.41129409       2.75784592E-02  
2.41186209       2.99654621E-02  
2.41243008       3.23874781E-02  
2.41299807       3.47805004E-02  
2.41356606       3.71372830E-02  
2.41413405       3.94223420E-02  
2.41470205       4.15643947E-02  
2.41527004       4.36335914E-02  
2.41583803       4.54463136E-02  
2.41640602       4.72173306E-02  
2.41697401       4.86454625E-02  
2.41754201       5.00734391E-02  
2.41811000       5.11207363E-02  
2.41867799       5.21659117E-02  
2.41924598       5.29215633E-02  
2.41981397       5.36376874E-02  
2.42038197       5.41681322E-02  
2.42094996       5.46424861E-02  
2.42151795       5.50373346E-02  
2.42208594       5.53710935E-02  
2.42265393       5.56142729E-02  
2.42322193       5.58065750E-02  
2.42378992       5.59725770E-02  
2.42435791       5.61028909E-02  
2.42492590       5.62239376E-02  
2.42549389       5.63242721E-02  
2.42606189       5.64223940E-02  
2.42662988       5.65113938E-02  
2.42719787       5.65992712E-02  
2.42776586       5.66868662E-02  
2.42833385       5.67737567E-02  
2.42890185       5.68666194E-02  
2.42946984       5.69589884E-02  
2.43003783       5.70563070E-02  
2.43060582       5.71568571E-02  
2.43117381       5.72600519E-02  
2.43174181       5.73636753E-02  
2.43230980       5.74674928E-02  
2.43287779       5.75715156E-02  
2.43344578       5.76738808E-02  
2.43401377       5.77747912E-02  
2.43458177       5.78737440E-02  
2.43514976       5.79697107E-02  
2.43571775       5.80638995E-02  
2.43628574       5.81533609E-02  
2.43685373       5.82431722E-02  
2.43742173       5.83291766E-02  
2.43798972       5.84147679E-02  
2.43855771       5.84902301E-02  
2.43912570       5.85658717E-02  
2.43969369       5.86305988E-02  
2.44026169       5.86950406E-02  
2.44082968       5.87493605E-02  
2.44139767       5.88016488E-02  
2.44196566       5.88473427E-02  
2.44253365       5.88910833E-02  
2.44310165       5.89288722E-02  
2.44366964       5.89631429E-02  
2.44423763       5.89934455E-02  
2.44480562       5.90194487E-02  
2.44537361       5.90430317E-02  
2.44594161       5.90616640E-02  
2.44650960       5.90790556E-02  
2.44707759       5.90866609E-02  
2.44764558       5.90609586E-02  
2.44821357       5.90448818E-02  
2.44878157       5.90532366E-02  
2.44934956       5.90461537E-02  
2.44991755       5.90324602E-02  
2.45048554       5.90170369E-02  
2.45105353       5.90013114E-02  
2.45162153       5.89840144E-02  
2.45218952       5.89663910E-02  
2.45275751       5.89474411E-02  
2.45332550       5.89279964E-02  
2.45389349       5.89081340E-02  
2.45446149       5.88883987E-02  
2.45502948       5.88735382E-02  
2.45559747       5.88649379E-02  
2.45616546       5.88565636E-02  
2.45673345       5.88482514E-02  
2.45730145       5.88402888E-02  
2.45786944       5.88331100E-02  
2.45843743       5.88262565E-02  
2.45900542       5.88204398E-02  
2.45957341       5.88146369E-02  
2.46014141       5.88093477E-02  
2.46070940       5.88005669E-02  
2.46127739       5.87933182E-02  
2.46184538       5.87863203E-02  
2.46241337       5.87817626E-02  
2.46298137       5.87779639E-02  
2.46354936       5.87764247E-02  
2.46411735       5.87760333E-02  
2.46468534       5.87771902E-02  
2.46525333       5.87797145E-02  
2.46582133       5.87834087E-02  
2.46638932       5.87887016E-02  
2.46695731       5.87954258E-02  
2.46752530       5.88053148E-02  
2.46809329       5.88175201E-02  
2.46866129       5.88409876E-02  
2.46922928       5.88612267E-02  
2.46979727       5.88790802E-02  
2.47036526       5.89045967E-02  
2.47093325       5.89389489E-02  
2.47150125       5.89653120E-02  
2.47206924       5.89954281E-02  
2.47263723       5.90335942E-02  
2.47320522       5.90881605E-02  
2.47377321       5.91637409E-02  
2.47434121       5.92270179E-02  
2.47490920       5.92818231E-02  
2.47547719       5.93315044E-02  
2.47604518       5.93830185E-02  
2.47661317       5.94432083E-02  
2.47718117       5.95019002E-02  
2.47774916       5.95543764E-02  
2.47831715       5.96121458E-02  
2.47888514       5.96740910E-02  
2.47945313       5.97375444E-02  
2.48002113       5.98006059E-02  
2.48058912       5.98552683E-02  
2.48115711       5.99014638E-02  
2.48172510       5.99242780E-02  
2.48229309       5.99668844E-02  
2.48286108       6.00271841E-02  
2.48342908       6.00853406E-02  
2.48399707       6.01430628E-02  
2.48456506       6.01912378E-02  
2.48513305       6.02385823E-02  
2.48570104       6.02906417E-02  
2.48626904       6.03404799E-02  
2.48683703       6.03878366E-02  
2.48740502       6.04337892E-02  
2.48797301       6.04777722E-02  
2.48854100       6.05117385E-02  
2.48910900       6.05434663E-02  
2.48967699       6.05811283E-02  
2.49024498       6.06102781E-02  
2.49081297       6.06372737E-02  
2.49138096       6.06579609E-02  
2.49194896       6.06785367E-02  
2.49251695       6.06988326E-02  
2.49308494       6.07196150E-02  
2.49365293       6.07383347E-02  
2.49422092       6.07564482E-02  
2.49478892       6.07690402E-02  
2.49535691       6.07788351E-02  
2.49592490       6.07860767E-02  
2.49649289       6.07911341E-02  
2.49706088       6.07922292E-02  
2.49762888       6.07879336E-02  
2.49819687       6.07807854E-02  
2.49876486       6.07685206E-02  
2.49933285       6.07462316E-02  
2.49990084       6.07174280E-02  
2.50046884       6.06928900E-02  
2.50103683       6.06638374E-02  
2.50160482       6.06404897E-02  
2.50217281       6.06120785E-02  
2.50274080       6.05833846E-02  
2.50330880       6.05529669E-02  
2.50387679       6.05226373E-02  
2.50444478       6.04949987E-02  
2.50501277       6.04666380E-02  
2.50558076       6.04349844E-02  
2.50614876       6.04017503E-02  
2.50671675       6.03665435E-02  
2.50728474       6.03273758E-02  
2.50785273       6.02885979E-02  
2.50842072       6.02475038E-02  
2.50898872       6.02059089E-02  
2.50955671       6.01645446E-02  
2.51012470       6.01244797E-02  
2.51069269       6.00861708E-02  
2.51126068       6.00481557E-02  
2.51182868       6.00173440E-02  
2.51239667       5.99998733E-02  
2.51296466       5.99926565E-02  
2.51353265       5.99818360E-02  
2.51410064       5.99683001E-02  
2.51466864       5.99544694E-02  
2.51523663       5.99320553E-02  
2.51580462       5.99107824E-02  
2.51637261       5.98953272E-02  
2.51694060       5.98829605E-02  
2.51750860       5.98721117E-02  
2.51807659       5.98633826E-02  
2.51864458       5.98562092E-02  
2.51921257       5.98551212E-02  
2.51978056       5.98552814E-02  
2.52034856       5.98572241E-02  
2.52091655       5.98586741E-02  
2.52148454       5.98618830E-02  
2.52205253       5.98667369E-02  
2.52262052       5.98747042E-02  
2.52318852       5.98772342E-02  
2.52375651       5.98800583E-02  
2.52432450       5.98837082E-02  
2.52489249       5.98888516E-02  
2.52546048       5.98941041E-02  
2.52602848       5.99008291E-02  
2.52659647       5.99082679E-02  
2.52716446       5.99147872E-02  
2.52773245       5.99209344E-02  
2.52830044       5.99286642E-02  
2.52886844       5.99426784E-02  
2.52943643       5.99570336E-02  
2.53000442       5.99697146E-02  
2.53057241       5.99853414E-02  
2.53114040       6.00015734E-02  
2.53170840       6.00181286E-02  
2.53227639       6.00391947E-02  
2.53284438       6.00573275E-02  
2.53341237       6.00753019E-02  
2.53398036       6.00949641E-02  
2.53454836       6.01144787E-02  
2.53511635       6.01328000E-02  
2.53568434       6.01460735E-02  
2.53625233       6.01585656E-02  
2.53682032       6.01724069E-02  
2.53738832       6.01859632E-02  
2.53795631       6.01956093E-02  
2.53852430       6.02028005E-02  
2.53909229       6.02108322E-02  
2.53966028       6.02254639E-02  
2.54022828       6.02389541E-02  
2.54079627       6.02486505E-02  
2.54136426       6.02577745E-02  
2.54193225       6.02618026E-02  
2.54250024       6.02617482E-02  
2.54306824       6.02581342E-02  
2.54363623       6.02537687E-02  
2.54420422       6.02467316E-02  
2.54477221       6.02490311E-02  
2.54534020       6.02537942E-02  
2.54590820       6.02565660E-02  
2.54647619       6.02521899E-02  
2.54704418       6.02467301E-02  
2.54761217       6.02405115E-02  
2.54818016       6.02335622E-02  
2.54874816       6.02204103E-02  
2.54931615       6.02024708E-02  
2.54988414       6.01822713E-02  
2.55045213       6.01619372E-02  
2.55102012       6.01420445E-02  
2.55158812       6.01226302E-02  
2.55215611       6.01035658E-02  
2.55272410       6.00867889E-02  
2.55329209       6.00706065E-02  
2.55386008       6.00458973E-02  
2.55442807       6.00234284E-02  
2.55499607       5.99949745E-02  
2.55556406       5.99656234E-02  
2.55613205       5.99304505E-02  
2.55670004       5.98945080E-02  
2.55726803       5.98518296E-02  
2.55783603       5.98066888E-02  
2.55840402       5.97589826E-02  
2.55897201       5.97086372E-02  
2.55954000       5.96532563E-02  
2.56010799       5.95929016E-02  
2.56067599       5.95301124E-02  
2.56124398       5.94644078E-02  
2.56181197       5.93975989E-02  
2.56237996       5.93259808E-02  
2.56294795       5.92537682E-02  
2.56351595       5.91797685E-02  
2.56408394       5.91047348E-02  
2.56465193       5.90247731E-02  
2.56521992       5.89433972E-02  
2.56578791       5.88650215E-02  
2.56635591       5.87893396E-02  
2.56692390       5.87199032E-02  
2.56749189       5.86530590E-02  
2.56805988       5.85932025E-02  
2.56862787       5.85350458E-02  
2.56919587       5.84815443E-02  
2.56976386       5.84342871E-02  
2.57033185       5.84154106E-02  
2.57089984       5.84196274E-02  
2.57146783       5.84004786E-02  
2.57203583       5.83933289E-02  
2.57260382       5.83933648E-02  
2.57317181       5.84146945E-02  
2.57373980       5.84382603E-02  
2.57430779       5.84814379E-02  
2.57487579       5.85268078E-02  
2.57544378       5.85866618E-02  
2.57601177       5.86371476E-02  
2.57657976       5.87015051E-02  
2.57714775       5.87604508E-02  
2.57771575       5.87892023E-02  
2.57828374       5.88348113E-02  
2.57885173       5.88811548E-02  
2.57941972       5.89173034E-02  
2.57998771       5.89198000E-02  
2.58055571       5.88974783E-02  
2.58112370       5.88343873E-02  
2.58169169       5.87182544E-02  
2.58225968       5.85590570E-02  
2.58282767       5.83097349E-02  
2.58339567       5.80240072E-02  
2.58396366       5.75925701E-02  
2.58453165       5.71371249E-02  
2.58509964       5.64736693E-02  
2.58566763       5.58105977E-02  
2.58623563       5.49071628E-02  
2.58680362       5.39989378E-02  
2.58737161       5.28628316E-02  
2.58793960       5.16972463E-02  
2.58850759       5.03355708E-02  
2.58907559       4.89041140E-02  
2.58964358       4.73103016E-02  
2.59021157       4.56283212E-02  
2.59077956       4.38422562E-02  
2.59134755       4.19604914E-02  
2.59191555       4.00179050E-02  
2.59248354       3.79862519E-02  
2.59305153       3.59348848E-02  
2.59361952       3.38382909E-02  
2.59418751       3.17293317E-02  
2.59475551       2.95839792E-02  
2.59532350       2.74566820E-02  
2.59589149       2.54374446E-02  
2.59645948       2.34177820E-02  
2.59702747       2.15663364E-02  
2.59759547       1.97349242E-02  
2.59816346       1.80651278E-02  
2.59873145       1.64200663E-02  
2.59929944       1.49373286E-02  
2.59986743       1.35170635E-02  
2.60043543       1.22319446E-02  
2.60100342       1.10360619E-02  
2.60157141       9.94270547E-03  
2.60213940       8.95612231E-03  
2.60270739       8.04178156E-03  
2.60327539       7.24653943E-03  
2.60384338       6.49394678E-03  
2.60441137       5.86042608E-03  
2.60497936       5.24540671E-03  
2.60554735       4.73476188E-03  
2.60611535       4.22792001E-03  
2.60668334       3.82913217E-03  
2.60725133       3.43093886E-03  
2.60781932       3.10927490E-03  
2.60838731       2.79476091E-03  
2.60895531       2.53227160E-03  
2.60952330       2.28242743E-03  
2.61009129       2.06885775E-03  
2.61065928       1.87155088E-03  
2.61122727       1.69737593E-03  
2.61179527       1.54026670E-03  
2.61236326       1.39756770E-03  
2.61293125       1.27168234E-03  
2.61349924       1.15428034E-03  
2.61406723       1.05384999E-03  
2.61463523       9.58521689E-04  
2.61520322       8.77448961E-04  
2.61577121       7.98272963E-04  
2.61633920       7.33366280E-04  
2.61690719       6.68498333E-04  
2.61747519       6.16050085E-04  
2.61804318       5.63538101E-04  
2.61861117       5.19131541E-04  
2.61917916       4.75737346E-04  
2.61974715       4.38974069E-04  
2.62031515       4.04088507E-04  
2.62088314       3.73012907E-04  
2.62145113       3.43920388E-04  
2.62201912       3.17588510E-04  
2.62258711       2.93512232E-04  
2.62315511       2.71595305E-04  
2.62372310       2.52470476E-04  
2.62429109       2.34272950E-04  
2.62485908       2.18073682E-04  
2.62542707       2.02432876E-04  
2.62599506       1.88951475E-04  
2.62656306       1.75671172E-04  
2.62713105       1.64470591E-04  
2.62769904       1.53271986E-04  
2.62826703       1.43348997E-04  
2.62883502       1.33462535E-04  
2.62940302       1.25347885E-04  
2.62997101       1.17527663E-04  
2.63053900       1.10511938E-04  
2.63110699       1.03773205E-04  
2.63167498       9.75092677E-05  
2.63224298       9.15183969E-05  
2.63281097       8.63911178E-05  
2.63337896       8.20784280E-05  
2.63394695       7.76996658E-05  
2.63451494       7.32711352E-05  
2.63508294       6.90360746E-05  
2.63565093       6.52579922E-05  
2.63621892       6.16217279E-05  
2.63678691       5.86714373E-05  
2.63735490       5.57327967E-05  
2.63792290       5.29803899E-05  
2.63849089       5.02269484E-05  
2.63905888       4.83299325E-05  
2.63962687       4.64765334E-05  
2.64019486       4.44819575E-05  
2.64076286       4.24607266E-05  
2.64133085       4.04569746E-05  
2.64189884       3.84586894E-05  
2.64246683       3.69748945E-05  
2.64303482       3.58326788E-05  
2.64360282       3.45305554E-05  
2.64417081       3.30627529E-05  
2.64473880       3.16546541E-05  
2.64530679       3.03421039E-05  
2.64587478       2.91155053E-05  
2.64644278       2.81356185E-05  
2.64701077       2.71288399E-05  
2.64757876       2.59581656E-05  
2.64814675       2.48020887E-05  
2.64871474       2.41328557E-05  
2.64928274       2.34653576E-05  
2.64985073       2.24294414E-05  
2.65041872       2.13470942E-05  
2.65098671       2.06252670E-05  
2.65155470       2.00054803E-05  
2.65212270       1.96290613E-05  
2.65269069       1.93733162E-05  
2.65325868       1.86952425E-05  
2.65382667       1.76974157E-05  
2.65439466       1.69513165E-05  
2.65496266       1.65059877E-05  
2.65553065       1.60866931E-05  
2.65609864       1.57178964E-05  
2.65666663       1.52638001E-05  
2.65723462       1.45223452E-05  
2.65780262       1.38352530E-05  
2.65837061       1.35674853E-05  
2.65893860       1.32999387E-05  
