# F460M filter 
# Wavelength [microns]  |  Transmission efficiency
4.38879970       1.55397437E-05  
4.38983953       1.62051109E-05  
4.39087935       1.66572909E-05  
4.39191918       1.70874906E-05  
4.39295900       1.76438074E-05  
4.39399883       1.84040040E-05  
4.39503865       1.94134607E-05  
4.39607848       2.04718636E-05  
4.39711830       2.15385185E-05  
4.39815813       2.26808821E-05  
4.39919795       2.39455629E-05  
4.40023778       2.53583975E-05  
4.40127761       2.68003067E-05  
4.40231743       2.81061752E-05  
4.40335726       2.93228099E-05  
4.40439708       3.05028646E-05  
4.40543691       3.17714892E-05  
4.40647673       3.31856437E-05  
4.40751656       3.46658488E-05  
4.40855638       3.62274471E-05  
4.40959621       3.78651711E-05  
4.41063603       3.95961601E-05  
4.41167586       4.14731063E-05  
4.41271569       4.34243229E-05  
4.41375551       4.54894531E-05  
4.41479534       4.76694229E-05  
4.41583516       5.00546314E-05  
4.41687499       5.29036295E-05  
4.41791481       5.59690171E-05  
4.41895464       5.92164162E-05  
4.41999446       6.26071576E-05  
4.42103429       6.60676089E-05  
4.42207411       6.96407365E-05  
4.42311394       7.33076934E-05  
4.42415377       7.70533525E-05  
4.42519359       8.08520252E-05  
4.42623342       8.49471047E-05  
4.42727324       8.92968971E-05  
4.42831307       9.39212056E-05  
4.42935289       9.88385391E-05  
4.43039272       1.04121994E-04  
4.43143254       1.09734937E-04  
4.43247237       1.15685577E-04  
4.43351219       1.21989017E-04  
4.43455202       1.28769884E-04  
4.43559185       1.35960970E-04  
4.43663167       1.43557535E-04  
4.43767150       1.51600917E-04  
4.43871132       1.60197889E-04  
4.43975115       1.69494654E-04  
4.44079097       1.79285430E-04  
4.44183080       1.89585083E-04  
4.44287062       2.00420069E-04  
4.44391045       2.12120656E-04  
4.44495027       2.24478594E-04  
4.44599010       2.37538475E-04  
4.44702993       2.51359791E-04  
4.44806975       2.66253954E-04  
4.44910958       2.82486907E-04  
4.45014940       2.99758023E-04  
4.45118923       3.18053042E-04  
4.45222905       3.37538597E-04  
4.45326888       3.58609518E-04  
4.45430870       3.81151797E-04  
4.45534853       4.05246391E-04  
4.45638835       4.30955606E-04  
4.45742818       4.59200404E-04  
4.45846801       4.89482772E-04  
4.45950783       5.21836545E-04  
4.46054766       5.56378415E-04  
4.46158748       5.93902361E-04  
4.46262731       6.34845519E-04  
4.46366713       6.78682821E-04  
4.46470696       7.25512775E-04  
4.46574678       7.75860871E-04  
4.46678661       8.31112792E-04  
4.46782643       8.90676584E-04  
4.46886626       9.54794246E-04  
4.46990609       1.02369895E-03  
4.47094591       1.10021210E-03  
4.47198574       1.18308392E-03  
4.47302556       1.27235743E-03  
4.47406539       1.36837526E-03  
4.47510521       1.47357696E-03  
4.47614504       1.59009241E-03  
4.47718486       1.71751771E-03  
4.47822469       1.85344165E-03  
4.47926451       2.00110175E-03  
4.48030434       2.16551942E-03  
4.48134417       2.34416157E-03  
4.48238399       2.53788795E-03  
4.48342382       2.74756182E-03  
4.48446364       2.98395291E-03  
4.48550347       3.24347344E-03  
4.48654329       3.52379665E-03  
4.48758312       3.82804591E-03  
4.48862294       4.16488874E-03  
4.48966277       4.53946947E-03  
4.49070259       4.94759757E-03  
4.49174242       5.39144836E-03  
4.49278225       5.87736605E-03  
4.49382207       6.42443925E-03  
4.49486190       7.02104540E-03  
4.49590172       7.67053098E-03  
4.49694155       8.37647147E-03  
4.49798137       9.17053157E-03  
4.49902120       1.00400623E-02  
4.50006102       1.09850594E-02  
4.50110085       1.20098009E-02  
4.50214067       1.31401681E-02  
4.50318050       1.43796452E-02  
4.50422033       1.57161276E-02  
4.50526015       1.71545495E-02  
4.50629998       1.87090505E-02  
4.50733980       2.03921132E-02  
4.50837963       2.21795018E-02  
4.50941945       2.40735836E-02  
4.51045928       2.60734322E-02  
4.51149910       2.81698763E-02  
4.51253893       3.03441376E-02  
4.51357875       3.25939167E-02  
4.51461858       3.49098457E-02  
4.51565841       3.72574910E-02  
4.51669823       3.96030526E-02  
4.51773806       4.19620624E-02  
4.51877788       4.43193104E-02  
4.51981771       4.66372095E-02  
4.52085753       4.88277016E-02  
4.52189736       5.09733699E-02  
4.52293718       5.30596883E-02  
4.52397701       5.50624859E-02  
4.52501683       5.68508716E-02  
4.52605666       5.85664829E-02  
4.52709648       6.02075987E-02  
4.52813631       6.17467223E-02  
4.52917614       6.30599568E-02  
4.53021596       6.42796646E-02  
4.53125579       6.54172699E-02  
4.53229561       6.64462252E-02  
4.53333544       6.73119380E-02  
4.53437526       6.80636272E-02  
4.53541509       6.87415534E-02  
4.53645491       6.93283853E-02  
4.53749474       6.98103662E-02  
4.53853456       7.02052665E-02  
4.53957439       7.05477199E-02  
4.54061422       7.08298113E-02  
4.54165404       7.10514847E-02  
4.54269387       7.12260162E-02  
4.54373369       7.13697681E-02  
4.54477352       7.14839730E-02  
4.54581334       7.15702242E-02  
4.54685317       7.16323415E-02  
4.54789299       7.16814323E-02  
4.54893282       7.17236896E-02  
4.54997264       7.17596140E-02  
4.55101247       7.17903288E-02  
4.55205230       7.18130654E-02  
4.55309212       7.18261074E-02  
4.55413195       7.18339421E-02  
4.55517177       7.18395190E-02  
4.55621160       7.18465768E-02  
4.55725142       7.18570183E-02  
4.55829125       7.18713709E-02  
4.55933107       7.18888969E-02  
4.56037090       7.19079158E-02  
4.56141072       7.19610530E-02  
4.56245055       7.20274842E-02  
4.56349038       7.20471807E-02  
4.56453020       7.20672290E-02  
4.56557003       7.20879812E-02  
4.56660985       7.21097347E-02  
4.56764968       7.21313203E-02  
4.56868950       7.21521804E-02  
4.56972933       7.21720869E-02  
4.57076915       7.21977369E-02  
4.57180898       7.22915412E-02  
4.57284880       7.23358477E-02  
4.57388863       7.23657522E-02  
4.57492846       7.23838261E-02  
4.57596828       7.23974167E-02  
4.57700811       7.24066454E-02  
4.57804793       7.24111407E-02  
4.57908776       7.24058177E-02  
4.58012758       7.23957043E-02  
4.58116741       7.23816625E-02  
4.58220723       7.23638603E-02  
4.58324706       7.23428619E-02  
4.58428688       7.23182607E-02  
4.58532671       7.22907995E-02  
4.58636654       7.22589331E-02  
4.58740636       7.22200459E-02  
4.58844619       7.21810259E-02  
4.58948601       7.21417543E-02  
4.59052584       7.21007713E-02  
4.59156566       7.20574302E-02  
4.59260549       7.20135292E-02  
4.59364531       7.19689874E-02  
4.59468514       7.19249452E-02  
4.59572496       7.18801952E-02  
4.59676479       7.18288449E-02  
4.59780462       7.17702723E-02  
4.59884444       7.17035806E-02  
4.59988427       7.16325260E-02  
4.60092409       7.15634253E-02  
4.60196392       7.14973373E-02  
4.60300374       7.14314637E-02  
4.60404357       7.13654104E-02  
4.60508339       7.12988871E-02  
4.60612322       7.12316122E-02  
4.60716304       7.11646745E-02  
4.60820287       7.10963081E-02  
4.60924270       7.10255929E-02  
4.61028252       7.09538398E-02  
4.61132235       7.08961878E-02  
4.61236217       7.08437333E-02  
4.61340200       7.07969187E-02  
4.61444182       7.07568737E-02  
4.61548165       7.07093382E-02  
4.61652147       7.06601060E-02  
4.61756130       7.06093890E-02  
4.61860112       7.05583975E-02  
4.61964095       7.05169774E-02  
4.62068078       7.04720674E-02  
4.62172060       7.04254448E-02  
4.62276043       7.03792395E-02  
4.62380025       7.03319766E-02  
4.62484008       7.02832726E-02  
4.62587990       7.02322928E-02  
4.62691973       7.01772754E-02  
4.62795955       7.01159716E-02  
4.62899938       7.00516866E-02  
4.63003920       6.99880476E-02  
4.63107903       6.99261925E-02  
4.63211886       6.98661697E-02  
4.63315868       6.98071857E-02  
4.63419851       6.97476334E-02  
4.63523833       6.96911427E-02  
4.63627816       6.96388681E-02  
4.63731798       6.95904781E-02  
4.63835781       6.95468847E-02  
4.63939763       6.95004467E-02  
4.64043746       6.94504151E-02  
4.64147728       6.93971887E-02  
4.64251711       6.93359811E-02  
4.64355694       6.92717524E-02  
4.64459676       6.92043373E-02  
4.64563659       6.91338481E-02  
4.64667641       6.90613532E-02  
4.64771624       6.89903293E-02  
4.64875606       6.89214055E-02  
4.64979589       6.88522815E-02  
4.65083571       6.87751938E-02  
4.65187554       6.87587919E-02  
4.65291536       6.86799479E-02  
4.65395519       6.85898540E-02  
4.65499502       6.85034291E-02  
4.65603484       6.84193807E-02  
4.65707467       6.83364850E-02  
4.65811449       6.82538727E-02  
4.65915432       6.81709754E-02  
4.66019414       6.80883510E-02  
4.66123397       6.80086068E-02  
4.66227379       6.79271054E-02  
4.66331362       6.78425283E-02  
4.66435344       6.77548182E-02  
4.66539327       6.76601201E-02  
4.66643310       6.75640107E-02  
4.66747292       6.74670712E-02  
4.66851275       6.73692039E-02  
4.66955257       6.72635784E-02  
4.67059240       6.71577344E-02  
4.67163222       6.70522665E-02  
4.67267205       6.69480058E-02  
4.67371187       6.68485307E-02  
4.67475170       6.67492118E-02  
4.67579152       6.66477710E-02  
4.67683135       6.65438904E-02  
4.67787118       6.64386109E-02  
4.67891100       6.63328205E-02  
4.67995083       6.62275930E-02  
4.68099065       6.61217455E-02  
4.68203048       6.60159486E-02  
4.68307030       6.59103125E-02  
4.68411013       6.58088855E-02  
4.68514995       6.57085604E-02  
4.68618978       6.56071572E-02  
4.68722960       6.55037810E-02  
4.68826943       6.53925162E-02  
4.68930926       6.52787347E-02  
4.69034908       6.51646527E-02  
4.69138891       6.50516465E-02  
4.69242873       6.49372085E-02  
4.69346856       6.48215465E-02  
4.69450838       6.47028169E-02  
4.69554821       6.45789204E-02  
4.69658803       6.44523213E-02  
4.69762786       6.43700721E-02  
4.69866768       6.42619585E-02  
4.69970751       6.41171140E-02  
4.70074734       6.39679362E-02  
4.70178716       6.38127474E-02  
4.70282699       6.36557649E-02  
4.70386681       6.34975336E-02  
4.70490664       6.33363911E-02  
4.70594646       6.31641115E-02  
4.70698629       6.29833504E-02  
4.70802611       6.27957091E-02  
4.70906594       6.26028814E-02  
4.71010576       6.23959917E-02  
4.71114559       6.21806155E-02  
4.71218542       6.19515111E-02  
4.71322524       6.17063950E-02  
4.71426507       6.14279800E-02  
4.71530489       6.11392215E-02  
4.71634472       6.08378283E-02  
4.71738454       6.05178149E-02  
4.71842437       6.01664440E-02  
4.71946419       5.97935628E-02  
4.72050402       5.93775570E-02  
4.72154384       5.89236071E-02  
4.72258367       5.84443161E-02  
4.72362350       5.79383851E-02  
4.72466332       5.73771837E-02  
4.72570315       5.67834670E-02  
4.72674297       5.61676748E-02  
4.72778280       5.55106723E-02  
4.72882262       5.47939327E-02  
4.72986245       5.40479125E-02  
4.73090227       5.32658385E-02  
4.73194210       5.24141939E-02  
4.73298192       5.15096873E-02  
4.73402175       5.05837882E-02  
4.73506158       4.96629731E-02  
4.73610140       4.86153067E-02  
4.73714123       4.75406870E-02  
4.73818105       4.64253832E-02  
4.73922088       4.52643348E-02  
4.74026070       4.40615317E-02  
4.74130053       4.28491678E-02  
4.74234035       4.15770438E-02  
4.74338018       4.02749395E-02  
4.74442000       3.89560966E-02  
4.74545983       3.76337875E-02  
4.74649966       3.62469172E-02  
4.74753948       3.48710528E-02  
4.74857931       3.35031458E-02  
4.74961913       3.21334878E-02  
4.75065896       3.07537021E-02  
4.75169878       2.94023234E-02  
4.75273861       2.80583214E-02  
4.75377843       2.67165312E-02  
4.75481826       2.54076482E-02  
4.75585808       2.41366180E-02  
4.75689791       2.28832539E-02  
4.75793774       2.16542472E-02  
4.75897756       2.04735285E-02  
4.76001739       1.93353818E-02  
4.76105721       1.82341446E-02  
4.76209704       1.71743862E-02  
4.76313686       1.61593116E-02  
4.76417669       1.51867306E-02  
4.76521651       1.42625151E-02  
4.76625634       1.33810427E-02  
4.76729616       1.25398505E-02  
4.76833599       1.17435011E-02  
4.76937582       1.09974815E-02  
4.77041564       1.02887632E-02  
4.77145547       9.61667367E-03  
4.77249529       8.98503419E-03  
4.77353512       8.40115765E-03  
4.77457494       7.84966797E-03  
4.77561477       7.32995737E-03  
4.77665459       6.84155957E-03  
4.77769442       6.39159362E-03  
4.77873424       5.97031936E-03  
4.77977407       5.57449726E-03  
4.78081389       5.20282973E-03  
4.78185372       4.85835808E-03  
4.78289355       4.53934922E-03  
4.78393337       4.24001335E-03  
4.78497320       3.95951191E-03  
4.78601302       3.69820503E-03  
4.78705285       3.45834650E-03  
4.78809267       3.23330722E-03  
4.78913250       3.02233405E-03  
4.79017232       2.82465853E-03  
4.79121215       2.64322487E-03  
4.79225197       2.47444910E-03  
4.79329180       2.31628862E-03  
4.79433163       2.16801659E-03  
4.79537145       2.03113632E-03  
4.79641128       1.90454231E-03  
4.79745110       1.78563533E-03  
4.79849093       1.67412213E-03  
4.79953075       1.57026030E-03  
4.80057058       1.47467649E-03  
4.80161040       1.38491372E-03  
4.80265023       1.30070483E-03  
4.80369005       1.22175554E-03  
4.80472988       1.14892287E-03  
4.80576971       1.08085651E-03  
4.80680953       1.01674088E-03  
4.80784936       9.56289960E-04  
4.80888918       9.00859663E-04  
4.80992901       8.48856369E-04  
4.81096883       7.99777000E-04  
4.81200866       7.53688231E-04  
4.81304848       7.10829110E-04  
4.81408831       6.71210572E-04  
4.81512813       6.33840269E-04  
4.81616796       5.98599451E-04  
4.81720779       5.65363158E-04  
4.81824761       5.34437116E-04  
4.81928744       5.05319481E-04  
4.82032726       4.77777492E-04  
4.82136709       4.51743047E-04  
4.82240691       4.27390792E-04  
4.82344674       4.04898032E-04  
4.82448656       3.83645459E-04  
4.82552639       3.63560138E-04  
4.82656621       3.44675361E-04  
4.82760604       3.27081443E-04  
4.82864587       3.10369888E-04  
4.82968569       2.94585595E-04  
4.83072552       2.79748778E-04  
4.83176534       2.65894013E-04  
4.83280517       2.52836289E-04  
4.83384499       2.40398697E-04  
4.83488482       2.28519290E-04  
4.83592464       2.17260770E-04  
4.83696447       2.06752948E-04  
4.83800429       1.96770328E-04  
4.83904412       1.87312465E-04  
4.84008395       1.78427193E-04  
4.84112377       1.70143562E-04  
4.84216360       1.62273084E-04  
4.84320342       1.54810361E-04  
4.84424325       1.47742704E-04  
4.84528307       1.41091279E-04  
4.84632290       1.34768243E-04  
4.84736272       1.28737342E-04  
4.84840255       1.22992378E-04  
4.84944237       1.17570052E-04  
4.85048220       1.12463840E-04  
4.85152203       1.07574085E-04  
4.85256185       1.02858280E-04  
4.85360168       9.82693508E-05  
4.85464150       9.39751445E-05  
4.85568133       8.98927355E-05  
4.85672115       8.60111789E-05  
4.85776098       8.23177159E-05  
4.85880080       7.88275344E-05  
4.85984063       7.53299107E-05  
4.86088045       7.19615645E-05  
4.86192028       6.87887392E-05  
4.86296011       6.58598439E-05  
4.86399993       6.33180730E-05  
4.86503976       6.09824584E-05  
4.86607958       5.87639335E-05  
4.86711941       5.65627105E-05  
4.86815923       5.44194968E-05  
4.86919906       5.22734059E-05  
4.87023888       5.01938110E-05  
4.87127871       4.82353787E-05  
4.87231853       4.64107407E-05  
4.87335836       4.46959919E-05  
4.87439819       4.30613536E-05  
4.87543801       4.15042988E-05  
4.87647784       4.00749683E-05  
4.87751766       3.87182783E-05  
4.87855749       3.73874067E-05  
4.87959731       3.60703004E-05  
4.88063714       3.47217392E-05  
4.88167696       3.34237354E-05  
4.88271679       3.22221764E-05  
4.88375661       3.11144456E-05  
4.88479644       3.00998799E-05  
4.88583627       2.92237370E-05  
4.88687609       2.83077235E-05  
4.88791592       2.73834970E-05  
4.88895574       2.64402046E-05  
4.88999557       2.54075813E-05  
4.89103539       2.44419043E-05  
4.89207522       2.35459072E-05  
4.89311504       2.27249057E-05  
4.89415487       2.19828330E-05  
4.89519469       2.13246538E-05  
4.89623452       2.06706688E-05  
4.89727435       2.00220355E-05  
4.89831417       1.93735105E-05  
4.89935400       1.86725219E-05  
4.90039382       1.80105583E-05  
4.90143365       1.73879023E-05  
4.90247347       1.68061470E-05  
4.90351330       1.62701224E-05  
4.90455312       1.57663850E-05  
4.90559295       1.51722231E-05  
4.90663277       1.45195446E-05  
4.90767260       1.38767889E-05  
