# F360M filter 
# Wavelength [microns]  |  Transmission efficiency
3.23484800       1.52054916E-05  
3.23636441       1.54354578E-05  
3.23788082       1.59354161E-05  
3.23939724       1.65784148E-05  
3.24091365       1.70213575E-05  
3.24243006       1.72622307E-05  
3.24394647       1.80888940E-05  
3.24546289       1.90674302E-05  
3.24697930       1.96010424E-05  
3.24849571       1.99273832E-05  
3.25001212       2.03288164E-05  
3.25152853       2.15338092E-05  
3.25304495       2.29335004E-05  
3.25456136       2.37951843E-05  
3.25607777       2.46292613E-05  
3.25759418       2.57565161E-05  
3.25911060       2.68111700E-05  
3.26062701       2.83567016E-05  
3.26214342       3.04290235E-05  
3.26365983       3.25931716E-05  
3.26517624       3.46825779E-05  
3.26669266       3.66376431E-05  
3.26820907       3.88562042E-05  
3.26972548       4.16698393E-05  
3.27124189       4.47904761E-05  
3.27275831       4.77533998E-05  
3.27427472       5.11095590E-05  
3.27579113       5.51823953E-05  
3.27730754       5.96577387E-05  
3.27882395       6.47445122E-05  
3.28034037       7.03020676E-05  
3.28185678       7.66083934E-05  
3.28337319       8.39224069E-05  
3.28488960       9.20459309E-05  
3.28640602       1.00845886E-04  
3.28792243       1.10900257E-04  
3.28943884       1.22740745E-04  
3.29095525       1.36017841E-04  
3.29247166       1.50407905E-04  
3.29398808       1.66874564E-04  
3.29550449       1.85497985E-04  
3.29702090       2.06091460E-04  
3.29853731       2.29491407E-04  
3.30005373       2.55511484E-04  
3.30157014       2.84044993E-04  
3.30308655       3.15415068E-04  
3.30460296       3.50076476E-04  
3.30611937       3.87784172E-04  
3.30763579       4.27565928E-04  
3.30915220       4.70182039E-04  
3.31066861       5.15648908E-04  
3.31218502       5.63359185E-04  
3.31370144       6.11992007E-04  
3.31521785       6.61359170E-04  
3.31673426       7.10241604E-04  
3.31825067       7.58731607E-04  
3.31976708       8.06574057E-04  
3.32128350       8.52790456E-04  
3.32279991       8.95914700E-04  
3.32431632       9.36291237E-04  
3.32583273       9.74038505E-04  
3.32734915       1.00935752E-03  
3.32886556       1.04236404E-03  
3.33038197       1.07268814E-03  
3.33189838       1.09982733E-03  
3.33341479       1.12569771E-03  
3.33493121       1.15136175E-03  
3.33644762       1.17460165E-03  
3.33796403       1.19725249E-03  
3.33948044       1.22082680E-03  
3.34099686       1.24298022E-03  
3.34251327       1.26497019E-03  
3.34402968       1.28819047E-03  
3.34554609       1.31279305E-03  
3.34706250       1.33851019E-03  
3.34857892       1.36726407E-03  
3.35009533       1.39913460E-03  
3.35161174       1.42728506E-03  
3.35312815       1.45862941E-03  
3.35464457       1.49292082E-03  
3.35616098       1.52977363E-03  
3.35767739       1.57025804E-03  
3.35919380       1.61543735E-03  
3.36071021       1.67370183E-03  
3.36222663       1.74753603E-03  
3.36374304       1.82831507E-03  
3.36525945       1.91669164E-03  
3.36677586       2.01356246E-03  
3.36829228       2.11929461E-03  
3.36980869       2.23454351E-03  
3.37132510       2.38110380E-03  
3.37284151       2.54882002E-03  
3.37435792       2.73430687E-03  
3.37587434       2.93469062E-03  
3.37739075       3.15596945E-03  
3.37890716       3.39991061E-03  
3.38042357       3.66172630E-03  
3.38193999       3.93214607E-03  
3.38345640       4.23159423E-03  
3.38497281       4.56407301E-03  
3.38648922       4.93080398E-03  
3.38800563       5.33620431E-03  
3.38952205       5.78672702E-03  
3.39103846       6.27071224E-03  
3.39255487       6.79761699E-03  
3.39407128       7.37942615E-03  
3.39558770       8.02160552E-03  
3.39710411       8.73599702E-03  
3.39862052       9.52764866E-03  
3.40013693       1.03994705E-02  
3.40165334       1.13579343E-02  
3.40316976       1.24125328E-02  
3.40468617       1.35683023E-02  
3.40620258       1.48357948E-02  
3.40771899       1.62255879E-02  
3.40923541       1.77532734E-02  
3.41075182       1.94377079E-02  
3.41226823       2.12476417E-02  
3.41378464       2.31912429E-02  
3.41530105       2.52722222E-02  
3.41681747       2.74953491E-02  
3.41833388       2.98169297E-02  
3.41985029       3.22407121E-02  
3.42136670       3.47765958E-02  
3.42288312       3.73766121E-02  
3.42439953       4.00132036E-02  
3.42591594       4.26497948E-02  
3.42743235       4.52251883E-02  
3.42894876       4.77155527E-02  
3.43046518       5.00872982E-02  
3.43198159       5.23070885E-02  
3.43349800       5.43825113E-02  
3.43501441       5.62611522E-02  
3.43653083       5.79665796E-02  
3.43804724       5.94793718E-02  
3.43956365       6.07987743E-02  
3.44108006       6.19008623E-02  
3.44259647       6.28064461E-02  
3.44411289       6.36212468E-02  
3.44562930       6.42342587E-02  
3.44714571       6.47377388E-02  
3.44866212       6.51957058E-02  
3.45017854       6.55621419E-02  
3.45169495       6.58743384E-02  
3.45321136       6.61283207E-02  
3.45472777       6.63366983E-02  
3.45624418       6.65186119E-02  
3.45776060       6.66867779E-02  
3.45927701       6.68442833E-02  
3.46079342       6.70488555E-02  
3.46230983       6.72956121E-02  
3.46382625       6.75504567E-02  
3.46534266       6.78179213E-02  
3.46685907       6.80949725E-02  
3.46837548       6.83733080E-02  
3.46989189       6.86629653E-02  
3.47140831       6.89296912E-02  
3.47292472       6.92258643E-02  
3.47444113       6.95478486E-02  
3.47595754       6.98763845E-02  
3.47747396       7.02959737E-02  
3.47899037       7.06454642E-02  
3.48050678       7.11050778E-02  
3.48202319       7.15296839E-02  
3.48353960       7.19597578E-02  
3.48505602       7.24058062E-02  
3.48657243       7.28726351E-02  
3.48808884       7.33398447E-02  
3.48960525       7.37961983E-02  
3.49112167       7.42697146E-02  
3.49263808       7.47368406E-02  
3.49415449       7.51903814E-02  
3.49567090       7.56326588E-02  
3.49718731       7.60698547E-02  
3.49870373       7.64953643E-02  
3.50022014       7.68981203E-02  
3.50173655       7.72793413E-02  
3.50325296       7.76384430E-02  
3.50476938       7.79701681E-02  
3.50628579       7.82774829E-02  
3.50780220       7.86405515E-02  
3.50931861       7.89244306E-02  
3.51083502       7.92545694E-02  
3.51235144       7.94968116E-02  
3.51386785       7.96965569E-02  
3.51538426       7.98976146E-02  
3.51690067       8.00874639E-02  
3.51841709       8.02577539E-02  
3.51993350       8.03913733E-02  
3.52144991       8.04752265E-02  
3.52296632       8.05460604E-02  
3.52448273       8.06166766E-02  
3.52599915       8.06936452E-02  
3.52751556       8.07549524E-02  
3.52903197       8.07937104E-02  
3.53054838       8.08061802E-02  
3.53206480       8.07952619E-02  
3.53358121       8.07846804E-02  
3.53509762       8.08627284E-02  
3.53661403       8.08397960E-02  
3.53813044       8.08298008E-02  
3.53964686       8.08377817E-02  
3.54116327       8.08189257E-02  
3.54267968       8.08469037E-02  
3.54419609       8.08517913E-02  
3.54571251       8.08415774E-02  
3.54722892       8.08296888E-02  
3.54874533       8.08232629E-02  
3.55026174       8.08322493E-02  
3.55177815       8.09217521E-02  
3.55329457       8.09774488E-02  
3.55481098       8.10228503E-02  
3.55632739       8.10744117E-02  
3.55784380       8.11319559E-02  
3.55936022       8.11969783E-02  
3.56087663       8.12858252E-02  
3.56239304       8.14048796E-02  
3.56390945       8.15446114E-02  
3.56542586       8.16949097E-02  
3.56694228       8.18657061E-02  
3.56845869       8.20963018E-02  
3.56997510       8.23335735E-02  
3.57149151       8.25066800E-02  
3.57300793       8.26818633E-02  
3.57452434       8.28652355E-02  
3.57604075       8.30568232E-02  
3.57755716       8.33162588E-02  
3.57907357       8.35752604E-02  
3.58058999       8.37820030E-02  
3.58210640       8.39787396E-02  
3.58362281       8.41637164E-02  
3.58513922       8.44345012E-02  
3.58665564       8.46072475E-02  
3.58817205       8.47801933E-02  
3.58968846       8.49393919E-02  
3.59120487       8.50749264E-02  
3.59272128       8.52075711E-02  
3.59423770       8.53298110E-02  
3.59575411       8.54424867E-02  
3.59727052       8.55419267E-02  
3.59878693       8.56124224E-02  
3.60030335       8.56610128E-02  
3.60181976       8.57073763E-02  
3.60333617       8.57878974E-02  
3.60485258       8.58873867E-02  
3.60636899       8.58994064E-02  
3.60788541       8.58841159E-02  
3.60940182       8.58525220E-02  
3.61091823       8.58089172E-02  
3.61243464       8.57437616E-02  
3.61395106       8.56657940E-02  
3.61546747       8.55726235E-02  
3.61698388       8.54596859E-02  
3.61850029       8.53418210E-02  
3.62001671       8.53161010E-02  
3.62153312       8.51849832E-02  
3.62304953       8.50469427E-02  
3.62456594       8.49071395E-02  
3.62608235       8.47699979E-02  
3.62759877       8.46255777E-02  
3.62911518       8.44607042E-02  
3.63063159       8.42957375E-02  
3.63214800       8.41592586E-02  
3.63366442       8.40384000E-02  
3.63518083       8.39201931E-02  
3.63669724       8.38054593E-02  
3.63821365       8.36864196E-02  
3.63973006       8.35582239E-02  
3.64124648       8.34531851E-02  
3.64276289       8.33768447E-02  
3.64427930       8.33164603E-02  
3.64579571       8.32709205E-02  
3.64731213       8.32256010E-02  
3.64882854       8.31913375E-02  
3.65034495       8.32879443E-02  
3.65186136       8.33068402E-02  
3.65337777       8.33272850E-02  
3.65489419       8.33519236E-02  
3.65641060       8.33746503E-02  
3.65792701       8.34185972E-02  
3.65944342       8.34810985E-02  
3.66095984       8.35483539E-02  
3.66247625       8.36336638E-02  
3.66399266       8.37412447E-02  
3.66550907       8.38591238E-02  
3.66702548       8.39755222E-02  
3.66854190       8.40921180E-02  
3.67005831       8.43051742E-02  
3.67157472       8.44435351E-02  
3.67309113       8.45982481E-02  
3.67460755       8.47676786E-02  
3.67612396       8.49489386E-02  
3.67764037       8.51314843E-02  
3.67915678       8.53073921E-02  
3.68067319       8.54853724E-02  
3.68218961       8.56693777E-02  
3.68370602       8.58645294E-02  
3.68522243       8.60524841E-02  
3.68673884       8.62302733E-02  
3.68825526       8.64076877E-02  
3.68977167       8.65880869E-02  
3.69128808       8.67571407E-02  
3.69280449       8.69277222E-02  
3.69432090       8.71883522E-02  
3.69583732       8.73387814E-02  
3.69735373       8.74789182E-02  
3.69887014       8.76058523E-02  
3.70038655       8.77197512E-02  
3.70190297       8.78304522E-02  
3.70341938       8.79450883E-02  
3.70493579       8.80505613E-02  
3.70645220       8.81422355E-02  
3.70796861       8.82296805E-02  
3.70948503       8.83130235E-02  
3.71100144       8.83960493E-02  
3.71251785       8.84679614E-02  
3.71403426       8.85209559E-02  
3.71555068       8.85635814E-02  
3.71706709       8.86132942E-02  
3.71858350       8.86707481E-02  
3.72009991       8.87184940E-02  
3.72161632       8.87580411E-02  
3.72313274       8.87943214E-02  
3.72464915       8.88308550E-02  
3.72616556       8.88688753E-02  
3.72768197       8.88967016E-02  
3.72919839       8.89144491E-02  
3.73071480       8.89287516E-02  
3.73223121       8.89378172E-02  
3.73374762       8.89469211E-02  
3.73526403       8.89888445E-02  
3.73678045       8.90827694E-02  
3.73829686       8.90946516E-02  
3.73981327       8.90976668E-02  
3.74132968       8.91831334E-02  
3.74284610       8.91595422E-02  
3.74436251       8.91309276E-02  
3.74587892       8.91019689E-02  
3.74739533       8.90641540E-02  
3.74891174       8.90179676E-02  
3.75042816       8.89699142E-02  
3.75194457       8.89172916E-02  
3.75346098       8.88437927E-02  
3.75497739       8.87424980E-02  
3.75649381       8.86254589E-02  
3.75801022       8.84837894E-02  
3.75952663       8.83084818E-02  
3.76104304       8.81069819E-02  
3.76255945       8.78809595E-02  
3.76407587       8.76322903E-02  
3.76559228       8.73553919E-02  
3.76710869       8.70327124E-02  
3.76862510       8.66614375E-02  
3.77014152       8.62368954E-02  
3.77165793       8.57520954E-02  
3.77317434       8.52078558E-02  
3.77469075       8.46025236E-02  
3.77620716       8.39527377E-02  
3.77772358       8.32899265E-02  
3.77923999       8.24744310E-02  
3.78075640       8.15889771E-02  
3.78227281       8.06328829E-02  
3.78378923       7.96060629E-02  
3.78530564       7.84942937E-02  
3.78682205       7.72862662E-02  
3.78833846       7.59893331E-02  
3.78985487       7.46128923E-02  
3.79137129       7.31419149E-02  
3.79288770       7.15906767E-02  
3.79440411       6.99423963E-02  
3.79592052       6.82298443E-02  
3.79743694       6.64715613E-02  
3.79895335       6.46470302E-02  
3.80046976       6.27566087E-02  
3.80198617       6.08232990E-02  
3.80350258       5.88483748E-02  
3.80501900       5.68383504E-02  
3.80653541       5.47865936E-02  
3.80805182       5.27089480E-02  
3.80956823       5.06262369E-02  
3.81108465       4.85458274E-02  
3.81260106       4.64760598E-02  
3.81411747       4.44162328E-02  
3.81563388       4.23723296E-02  
3.81715029       4.03613199E-02  
3.81866671       3.84134421E-02  
3.82018312       3.64675656E-02  
3.82169953       3.45677553E-02  
3.82321594       3.27196367E-02  
3.82473236       3.09318565E-02  
3.82624877       2.92039023E-02  
3.82776518       2.75327273E-02  
3.82928159       2.59249292E-02  
3.83079800       2.43859529E-02  
3.83231442       2.29151524E-02  
3.83383083       2.15114676E-02  
3.83534724       2.01763274E-02  
3.83686365       1.89064104E-02  
3.83838007       1.77060199E-02  
3.83989648       1.65726138E-02  
3.84141289       1.54925150E-02  
3.84292930       1.44760802E-02  
3.84444571       1.35238140E-02  
3.84596213       1.26274790E-02  
3.84747854       1.17830927E-02  
3.84899495       1.09887439E-02  
3.85051136       1.02425954E-02  
3.85202778       9.54203394E-03  
3.85354419       8.88622499E-03  
3.85506060       8.27476695E-03  
3.85657701       7.70887816E-03  
3.85809342       7.18872559E-03  
3.85960984       6.69353397E-03  
3.86112625       6.23081942E-03  
3.86264266       5.79913898E-03  
3.86415907       5.39653605E-03  
3.86567549       5.02183007E-03  
3.86719190       4.67311274E-03  
3.86870831       4.34974373E-03  
3.87022472       4.04937878E-03  
3.87174113       3.77002345E-03  
3.87325755       3.50970276E-03  
3.87477396       3.26750296E-03  
3.87629037       3.04272345E-03  
3.87780678       2.83352511E-03  
3.87932320       2.63809867E-03  
3.88083961       2.45653252E-03  
3.88235602       2.28838227E-03  
3.88387243       2.13233281E-03  
3.88538884       1.98688450E-03  
3.88690526       1.85184072E-03  
3.88842167       1.72678056E-03  
3.88993808       1.61010472E-03  
3.89145449       1.50089006E-03  
3.89297091       1.39959556E-03  
3.89448732       1.30602858E-03  
3.89600373       1.21890111E-03  
3.89752014       1.13819559E-03  
3.89903655       1.06281772E-03  
3.90055297       9.92269130E-04  
3.90206938       9.26783210E-04  
3.90358579       8.65817260E-04  
3.90510220       8.08943361E-04  
3.90661862       7.55724505E-04  
3.90813503       7.05825511E-04  
3.90965144       6.59290774E-04  
3.91116785       6.16178234E-04  
3.91268426       5.76503328E-04  
3.91420068       5.39921775E-04  
3.91571709       5.05749201E-04  
3.91723350       4.73028266E-04  
3.91874991       4.42668237E-04  
3.92026633       4.14482808E-04  
3.92178274       3.88250807E-04  
3.92329915       3.63541505E-04  
3.92481556       3.40281277E-04  
3.92633197       3.18516772E-04  
3.92784839       2.98088699E-04  
3.92936480       2.78987967E-04  
3.93088121       2.61468382E-04  
3.93239762       2.45005222E-04  
3.93391404       2.29563469E-04  
3.93543045       2.15055750E-04  
3.93694686       2.01328019E-04  
3.93846327       1.88779966E-04  
3.93997968       1.76984267E-04  
3.94149610       1.66069623E-04  
3.94301251       1.55999283E-04  
3.94452892       1.46364788E-04  
3.94604533       1.37045432E-04  
3.94756175       1.28582939E-04  
3.94907816       1.20584812E-04  
3.95059457       1.12863546E-04  
3.95211098       1.05722846E-04  
3.95362739       9.91292618E-05  
3.95514381       9.29335684E-05  
3.95666022       8.72054241E-05  
3.95817663       8.17696972E-05  
3.95969304       7.66525714E-05  
3.96120946       7.19209779E-05  
3.96272587       6.71404751E-05  
3.96424228       6.24448485E-05  
3.96575869       5.81580336E-05  
3.96727510       5.43369981E-05  
3.96879152       5.09467586E-05  
3.97030793       4.78719760E-05  
3.97182434       4.45679459E-05  
3.97334075       4.12056633E-05  
3.97485717       3.79814200E-05  
3.97637358       3.49790520E-05  
3.97788999       3.24484998E-05  
3.97940640       3.01956086E-05  
3.98092281       2.78533968E-05  
3.98243923       2.56424654E-05  
3.98395564       2.38336932E-05  
3.98547205       2.20868958E-05  
3.98698846       2.02549150E-05  
3.98850488       1.85674472E-05  
3.99002129       1.72139558E-05  
3.99153770       1.61231678E-05  
