# F300M filter 
# Wavelength [microns]  |  Transmission efficiency
2.69705790       1.48042496E-05  
2.69830082       1.53976808E-05  
2.69954373       1.63551784E-05  
2.70078665       1.71072700E-05  
2.70202957       1.76461020E-05  
2.70327248       1.82698196E-05  
2.70451540       1.90592597E-05  
2.70575832       1.99437334E-05  
2.70700123       2.07809649E-05  
2.70824415       2.14766580E-05  
2.70948706       2.22763013E-05  
2.71072998       2.31228936E-05  
2.71197290       2.45475985E-05  
2.71321581       2.57327702E-05  
2.71445873       2.64760382E-05  
2.71570165       2.74341102E-05  
2.71694456       2.87762797E-05  
2.71818748       3.03210521E-05  
2.71943040       3.17532617E-05  
2.72067331       3.33265222E-05  
2.72191623       3.51874477E-05  
2.72315915       3.70968684E-05  
2.72440206       3.90819287E-05  
2.72564498       4.10896764E-05  
2.72688789       4.29697495E-05  
2.72813081       4.55219820E-05  
2.72937373       4.86214707E-05  
2.73061664       5.18561159E-05  
2.73185956       5.52856287E-05  
2.73310248       5.88532250E-05  
2.73434539       6.27177041E-05  
2.73558831       6.74497884E-05  
2.73683123       7.23882085E-05  
2.73807414       7.74219375E-05  
2.73931706       8.33901706E-05  
2.74055998       9.02445130E-05  
2.74180289       9.79194838E-05  
2.74304581       1.05950910E-04  
2.74428872       1.14616393E-04  
2.74553164       1.24465376E-04  
2.74677456       1.35437787E-04  
2.74801747       1.47447904E-04  
2.74926039       1.60216507E-04  
2.75050331       1.74284795E-04  
2.75174622       1.89614017E-04  
2.75298914       2.05810994E-04  
2.75423206       2.23886511E-04  
2.75547497       2.44134133E-04  
2.75671789       2.65373186E-04  
2.75796081       2.88212553E-04  
2.75920372       3.13097919E-04  
2.76044664       3.40510558E-04  
2.76168955       3.69814033E-04  
2.76293247       4.01158653E-04  
2.76417539       4.34982559E-04  
2.76541830       4.71368346E-04  
2.76666122       5.09958014E-04  
2.76790414       5.51213387E-04  
2.76914705       5.95320887E-04  
2.77038997       6.42142991E-04  
2.77163289       6.91784640E-04  
2.77287580       7.44523419E-04  
2.77411872       8.00148135E-04  
2.77536164       8.59101800E-04  
2.77660455       9.23078527E-04  
2.77784747       9.91375416E-04  
2.77909038       1.06519956E-03  
2.78033330       1.14275537E-03  
2.78157622       1.22523827E-03  
2.78281913       1.31436899E-03  
2.78406205       1.41000135E-03  
2.78530497       1.51262954E-03  
2.78654788       1.62315841E-03  
2.78779080       1.74450181E-03  
2.78903372       1.87581308E-03  
2.79027663       2.01773680E-03  
2.79151955       2.17349545E-03  
2.79276247       2.34547535E-03  
2.79400538       2.53452999E-03  
2.79524830       2.73946033E-03  
2.79649121       2.96847656E-03  
2.79773413       3.22080790E-03  
2.79897705       3.50357208E-03  
2.80021996       3.80839591E-03  
2.80146288       4.15047141E-03  
2.80270580       4.53054974E-03  
2.80394871       4.95166478E-03  
2.80519163       5.41174627E-03  
2.80643455       5.93406832E-03  
2.80767746       6.51764826E-03  
2.80892038       7.16667193E-03  
2.81016330       7.87936931E-03  
2.81140621       8.68138092E-03  
2.81264913       9.57105905E-03  
2.81389204       1.05550466E-02  
2.81513496       1.16258234E-02  
2.81637788       1.28169209E-02  
2.81762079       1.41242467E-02  
2.81886371       1.55691213E-02  
2.82010663       1.71053722E-02  
2.82134954       1.87796677E-02  
2.82259246       2.05801032E-02  
2.82383538       2.24894541E-02  
2.82507829       2.45080310E-02  
2.82632121       2.66143537E-02  
2.82756413       2.87846436E-02  
2.82880704       3.10043637E-02  
2.83004996       3.32541749E-02  
2.83129287       3.54998238E-02  
2.83253579       3.77140698E-02  
2.83377871       3.98774259E-02  
2.83502162       4.19856967E-02  
2.83626454       4.39925749E-02  
2.83750746       4.58478176E-02  
2.83875037       4.76138274E-02  
2.83999329       4.92611156E-02  
2.84123621       5.08411993E-02  
2.84247912       5.22347749E-02  
2.84372204       5.35063829E-02  
2.84496496       5.46679343E-02  
2.84620787       5.57259430E-02  
2.84745079       5.66809346E-02  
2.84869370       5.75351193E-02  
2.84993662       5.83006704E-02  
2.85117954       5.89467055E-02  
2.85242245       5.95267882E-02  
2.85366537       6.00440896E-02  
2.85490829       6.05034340E-02  
2.85615120       6.09102022E-02  
2.85739412       6.12558399E-02  
2.85863704       6.15573562E-02  
2.85987995       6.18299676E-02  
2.86112287       6.20103794E-02  
2.86236579       6.22298278E-02  
2.86360870       6.24236189E-02  
2.86485162       6.26482277E-02  
2.86609453       6.27806219E-02  
2.86733745       6.28956822E-02  
2.86858037       6.29952869E-02  
2.86982328       6.30552373E-02  
2.87106620       6.31296805E-02  
2.87230912       6.32018233E-02  
2.87355203       6.32451040E-02  
2.87479495       6.32676550E-02  
2.87603787       6.32879397E-02  
2.87728078       6.33137417E-02  
2.87852370       6.33428722E-02  
2.87976662       6.33704163E-02  
2.88100953       6.33935066E-02  
2.88225245       6.34188010E-02  
2.88349536       6.34317419E-02  
2.88473828       6.34404148E-02  
2.88598120       6.33809343E-02  
2.88722411       6.34009191E-02  
2.88846703       6.34204075E-02  
2.88970995       6.34429698E-02  
2.89095286       6.34835613E-02  
2.89219578       6.35346075E-02  
2.89343870       6.36188761E-02  
2.89468161       6.36502507E-02  
2.89592453       6.36910346E-02  
2.89716745       6.37292639E-02  
2.89841036       6.37578196E-02  
2.89965328       6.37819322E-02  
2.90089619       6.38017077E-02  
2.90213911       6.38091920E-02  
2.90338203       6.38004604E-02  
2.90462494       6.37877666E-02  
2.90586786       6.37904952E-02  
2.90711078       6.37970247E-02  
2.90835369       6.37845788E-02  
2.90959661       6.37595219E-02  
2.91083953       6.36895318E-02  
2.91208244       6.36816972E-02  
2.91332536       6.36651508E-02  
2.91456828       6.36499267E-02  
2.91581119       6.36272684E-02  
2.91705411       6.36136874E-02  
2.91829703       6.35991974E-02  
2.91953994       6.35822253E-02  
2.92078286       6.35411749E-02  
2.92202577       6.34953684E-02  
2.92326869       6.34569590E-02  
2.92451161       6.34181636E-02  
2.92575452       6.33803891E-02  
2.92699744       6.34136599E-02  
2.92824036       6.33640071E-02  
2.92948327       6.33059973E-02  
2.93072619       6.32481165E-02  
2.93196911       6.31916318E-02  
2.93321202       6.31415714E-02  
2.93445494       6.30916538E-02  
2.93569786       6.30403285E-02  
2.93694077       6.29783436E-02  
2.93818369       6.28300492E-02  
2.93942660       6.27587453E-02  
2.94066952       6.27020241E-02  
2.94191244       6.26567878E-02  
2.94315535       6.26386823E-02  
2.94439827       6.26619439E-02  
2.94564119       6.25995176E-02  
2.94688410       6.25466592E-02  
2.94812702       6.24909985E-02  
2.94936994       6.24260950E-02  
2.95061285       6.23907579E-02  
2.95185577       6.23378957E-02  
2.95309869       6.22643679E-02  
2.95434160       6.21881252E-02  
2.95558452       6.21104559E-02  
2.95682743       6.20364054E-02  
2.95807035       6.19616956E-02  
2.95931327       6.18822487E-02  
2.96055618       6.18198792E-02  
2.96179910       6.17661384E-02  
2.96304202       6.17016143E-02  
2.96428493       6.16346508E-02  
2.96552785       6.15794197E-02  
2.96677077       6.15284132E-02  
2.96801368       6.14747084E-02  
2.96925660       6.14320297E-02  
2.97049952       6.14075239E-02  
2.97174243       6.13867114E-02  
2.97298535       6.13614849E-02  
2.97422826       6.13452848E-02  
2.97547118       6.13917899E-02  
2.97671410       6.14548176E-02  
2.97795701       6.14509529E-02  
2.97919993       6.14483907E-02  
2.98044285       6.14411909E-02  
2.98168576       6.14217737E-02  
2.98292868       6.14048316E-02  
2.98417160       6.13815715E-02  
2.98541451       6.13504598E-02  
2.98665743       6.13202476E-02  
2.98790035       6.12990678E-02  
2.98914326       6.13474003E-02  
2.99038618       6.13427805E-02  
2.99162909       6.13571210E-02  
2.99287201       6.13619687E-02  
2.99411493       6.13576046E-02  
2.99535784       6.13451898E-02  
2.99660076       6.13323998E-02  
2.99784368       6.13241319E-02  
2.99908659       6.13204150E-02  
3.00032951       6.13040194E-02  
3.00157243       6.12836294E-02  
3.00281534       6.12421228E-02  
3.00405826       6.11677442E-02  
3.00530118       6.10979738E-02  
3.00654409       6.10626411E-02  
3.00778701       6.10101748E-02  
3.00902992       6.09310957E-02  
3.01027284       6.08546680E-02  
3.01151576       6.08114893E-02  
3.01275867       6.07649313E-02  
3.01400159       6.07139332E-02  
3.01524451       6.06600491E-02  
3.01648742       6.06006760E-02  
3.01773034       6.05372771E-02  
3.01897326       6.04785561E-02  
3.02021617       6.04159837E-02  
3.02145909       6.03303219E-02  
3.02270201       6.02385239E-02  
3.02394492       6.01330974E-02  
3.02518784       6.00349785E-02  
3.02643075       5.99446064E-02  
3.02767367       5.98537102E-02  
3.02891659       5.97581028E-02  
3.03015950       5.96639952E-02  
3.03140242       5.96131445E-02  
3.03264534       5.95553161E-02  
3.03388825       5.94961109E-02  
3.03513117       5.94507011E-02  
3.03637409       5.94344700E-02  
3.03761700       5.94220209E-02  
3.03885992       5.93635715E-02  
3.04010284       5.93035780E-02  
3.04134575       5.92656101E-02  
3.04258867       5.92386600E-02  
3.04383158       5.92148553E-02  
3.04507450       5.91814370E-02  
3.04631742       5.91359427E-02  
3.04756033       5.90944402E-02  
3.04880325       5.91125381E-02  
3.05004617       5.90845995E-02  
3.05128908       5.90147941E-02  
3.05253200       5.89525660E-02  
3.05377492       5.88835971E-02  
3.05501783       5.88108357E-02  
3.05626075       5.87555275E-02  
3.05750367       5.87025897E-02  
3.05874658       5.86433631E-02  
3.05998950       5.85817558E-02  
3.06123241       5.85852424E-02  
3.06247533       5.85850429E-02  
3.06371825       5.85855321E-02  
3.06496116       5.85997213E-02  
3.06620408       5.86951025E-02  
3.06744700       5.87244688E-02  
3.06868991       5.87970473E-02  
3.06993283       5.88420236E-02  
3.07117575       5.88414112E-02  
3.07241866       5.88517914E-02  
3.07366158       5.88573503E-02  
3.07490450       5.88611685E-02  
3.07614741       5.88742999E-02  
3.07739033       5.89002255E-02  
3.07863324       5.89305922E-02  
3.07987616       5.89514962E-02  
3.08111908       5.90100642E-02  
3.08236199       5.90785018E-02  
3.08360491       5.91616333E-02  
3.08484783       5.92450075E-02  
3.08609074       5.93190930E-02  
3.08733366       5.94063021E-02  
3.08857658       5.94893272E-02  
3.08981949       5.95620239E-02  
3.09106241       5.96428388E-02  
3.09230533       5.97163993E-02  
3.09354824       5.98260605E-02  
3.09479116       5.99357193E-02  
3.09603407       6.00150876E-02  
3.09727699       6.00884043E-02  
3.09851991       6.01611107E-02  
3.09976282       6.02198931E-02  
3.10100574       6.02449144E-02  
3.10224866       6.02597077E-02  
3.10349157       6.02811442E-02  
3.10473449       6.03082724E-02  
3.10597741       6.03319222E-02  
3.10722032       6.03611397E-02  
3.10846324       6.04004395E-02  
3.10970616       6.04401830E-02  
3.11094907       6.04870261E-02  
3.11219199       6.05340585E-02  
3.11343491       6.05803486E-02  
3.11467782       6.06327014E-02  
3.11592074       6.07051969E-02  
3.11716365       6.07799105E-02  
3.11840657       6.08421618E-02  
3.11964949       6.09190979E-02  
3.12089240       6.11015778E-02  
3.12213532       6.12167646E-02  
3.12337824       6.12951409E-02  
3.12462115       6.13466997E-02  
3.12586407       6.13740010E-02  
3.12710699       6.13790825E-02  
3.12834990       6.13445691E-02  
3.12959282       6.12474588E-02  
3.13083574       6.10738185E-02  
3.13207865       6.07794241E-02  
3.13332157       6.03837380E-02  
3.13456448       5.98696416E-02  
3.13580740       5.92400523E-02  
3.13705032       5.84906801E-02  
3.13829323       5.75987945E-02  
3.13953615       5.65611206E-02  
3.14077907       5.53822311E-02  
3.14202198       5.40488623E-02  
3.14326490       5.25669950E-02  
3.14450782       5.09382279E-02  
3.14575073       4.92003889E-02  
3.14699365       4.73496339E-02  
3.14823657       4.54290851E-02  
3.14947948       4.34031794E-02  
3.15072240       4.13145866E-02  
3.15196531       3.91914739E-02  
3.15320823       3.70598291E-02  
3.15445115       3.49421189E-02  
3.15569406       3.28592583E-02  
3.15693698       3.08274274E-02  
3.15817990       2.88597156E-02  
3.15942281       2.69711954E-02  
3.16066573       2.51614157E-02  
3.16190865       2.34350417E-02  
3.16315156       2.18142328E-02  
3.16439448       2.02924542E-02  
3.16563740       1.88692942E-02  
3.16688031       1.75422917E-02  
3.16812323       1.63078870E-02  
3.16936614       1.51628515E-02  
3.17060906       1.41064107E-02  
3.17185198       1.31320642E-02  
3.17309489       1.22460804E-02  
3.17433781       1.14160444E-02  
3.17558073       1.06511358E-02  
3.17682364       9.94539576E-03  
3.17806656       9.29692997E-03  
3.17930948       8.70233633E-03  
3.18055239       8.15356318E-03  
3.18179531       7.64633322E-03  
3.18303823       7.17856084E-03  
3.18428114       6.74728105E-03  
3.18552406       6.34884711E-03  
3.18676697       5.98025507E-03  
3.18800989       5.63998402E-03  
3.18925281       5.32616231E-03  
3.19049572       5.03533703E-03  
3.19173864       4.76540549E-03  
3.19298156       4.51437664E-03  
3.19422447       4.28281930E-03  
3.19546739       4.06791112E-03  
3.19671031       3.86816183E-03  
3.19795322       3.68537220E-03  
3.19919614       3.51058758E-03  
3.20043906       3.34732390E-03  
3.20168197       3.19452055E-03  
3.20292489       3.05150002E-03  
3.20416780       2.91758616E-03  
3.20541072       2.79149261E-03  
3.20665364       2.67223983E-03  
3.20789655       2.55960310E-03  
3.20913947       2.45361600E-03  
3.21038239       2.35421266E-03  
3.21162530       2.26003301E-03  
3.21286822       2.16802575E-03  
3.21411114       2.08281090E-03  
3.21535405       2.00213190E-03  
3.21659697       1.92485655E-03  
3.21783989       1.85087417E-03  
3.21908280       1.78035183E-03  
3.22032572       1.71316160E-03  
3.22156863       1.64991973E-03  
3.22281155       1.58827165E-03  
3.22405447       1.52809385E-03  
3.22529738       1.47032404E-03  
3.22654030       1.41475331E-03  
3.22778322       1.36099397E-03  
3.22902613       1.30924112E-03  
3.23026905       1.25885081E-03  
3.23151197       1.20952471E-03  
3.23275488       1.16207134E-03  
3.23399780       1.11621973E-03  
3.23524072       1.07150620E-03  
3.23648363       1.02780286E-03  
3.23772655       9.84609256E-04  
3.23896946       9.42270461E-04  
3.24021238       9.01478330E-04  
3.24145530       8.61920543E-04  
3.24269821       8.23562780E-04  
3.24394113       7.86131210E-04  
3.24518405       7.50567186E-04  
3.24642696       7.15294454E-04  
3.24766988       6.81094725E-04  
3.24891280       6.47722611E-04  
3.25015571       6.15207472E-04  
3.25139863       5.83850215E-04  
3.25264155       5.53683827E-04  
3.25388446       5.24843168E-04  
3.25512738       4.97325187E-04  
3.25637029       4.70423203E-04  
3.25761321       4.44124016E-04  
3.25885613       4.19001193E-04  
3.26009904       3.95052578E-04  
3.26134196       3.72400111E-04  
3.26258488       3.50981163E-04  
3.26382779       3.30249061E-04  
3.26507071       3.09915097E-04  
3.26631363       2.90371846E-04  
3.26755654       2.72253008E-04  
3.26879946       2.55094612E-04  
3.27004238       2.38699965E-04  
3.27128529       2.23418531E-04  
3.27252821       2.09293641E-04  
3.27377112       1.95697272E-04  
3.27501404       1.82645592E-04  
3.27625696       1.70588956E-04  
3.27749987       1.59408985E-04  
3.27874279       1.48753382E-04  
3.27998571       1.38654192E-04  
3.28122862       1.29354162E-04  
3.28247154       1.20694131E-04  
3.28371446       1.12271593E-04  
3.28495737       1.04427787E-04  
3.28620029       9.73616187E-05  
3.28744321       9.07244789E-05  
3.28868612       8.43522956E-05  
3.28992904       7.85437358E-05  
3.29117195       7.30708785E-05  
3.29241487       6.78731079E-05  
3.29365779       6.30638207E-05  
3.29490070       5.86685884E-05  
3.29614362       5.45175289E-05  
3.29738654       5.05595067E-05  
3.29862945       4.70259523E-05  
3.29987237       4.39771362E-05  
3.30111529       4.08695304E-05  
3.30235820       3.80294801E-05  
3.30360112       3.55840386E-05  
3.30484404       3.30108191E-05  
3.30608695       3.04385556E-05  
3.30732987       2.80498577E-05  
3.30857278       2.60454654E-05  
3.30981570       2.43220131E-05  
3.31105862       2.26181123E-05  
3.31230153       2.08985016E-05  
3.31354445       1.93335437E-05  
3.31478737       1.81022384E-05  
3.31603028       1.69378387E-05  
3.31727320       1.55290541E-05  
