# F322W2 filter 
# Wavelength [microns]  |  Transmission efficiency
2.33977370       2.24898726E-05  
2.34354148       1.48155283E-05  
2.34730926       2.76178460E-05  
2.35107704       2.95731878E-05  
2.35484482       4.01682325E-05  
2.35861260       6.34419892E-05  
2.36238038       9.18743192E-05  
2.36614816       1.40534123E-04  
2.36991594       2.41911682E-04  
2.37368372       3.63619564E-04  
2.37745150       6.09223568E-04  
2.38121928       9.62905218E-04  
2.38498706       1.52491383E-03  
2.38875484       2.40132059E-03  
2.39252262       3.63231846E-03  
2.39629040       5.33668015E-03  
2.40005818       7.54896687E-03  
2.40382596       1.03256609E-02  
2.40759374       1.38561855E-02  
2.41136152       1.82550041E-02  
2.41512930       2.35186268E-02  
2.41889707       2.95968461E-02  
2.42266485       3.59359811E-02  
2.42643263       4.21377232E-02  
2.43020041       4.78850376E-02  
2.43396819       5.33775360E-02  
2.43773597       5.85536689E-02  
2.44150375       6.32338922E-02  
2.44527153       6.67213214E-02  
2.44903931       6.90166056E-02  
2.45280709       7.03334400E-02  
2.45657487       7.10906143E-02  
2.46034265       7.15340424E-02  
2.46411043       7.18070137E-02  
2.46787821       7.20402526E-02  
2.47164599       7.22981088E-02  
2.47541377       7.26278512E-02  
2.47918155       7.28476502E-02  
2.48294933       7.29592992E-02  
2.48671711       7.31125141E-02  
2.49048489       7.32391717E-02  
2.49425267       7.33379448E-02  
2.49802045       7.34063223E-02  
2.50178823       7.19457460E-02  
2.50555601       7.19096856E-02  
2.50932379       7.17947215E-02  
2.51309157       7.16943168E-02  
2.51685935       7.15802125E-02  
2.52062713       7.15184920E-02  
2.52439491       7.14970199E-02  
2.52816269       7.15110366E-02  
2.53193047       7.16090235E-02  
2.53569825       7.17153330E-02  
2.53946603       7.18115319E-02  
2.54323381       7.18002990E-02  
2.54700159       7.17674689E-02  
2.55076937       7.15930421E-02  
2.55453715       7.13726470E-02  
2.55830493       7.10901657E-02  
2.56207271       7.06576844E-02  
2.56584049       7.04753995E-02  
2.56960827       7.02335070E-02  
2.57337605       7.02393661E-02  
2.57714382       7.03459364E-02  
2.58091160       7.05609537E-02  
2.58467938       7.10185108E-02  
2.58844716       7.16013202E-02  
2.59221494       7.22604383E-02  
2.59598272       7.27031189E-02  
2.59975050       7.35793438E-02  
2.60351828       7.38480175E-02  
2.60728606       7.40218200E-02  
2.61105384       7.41409143E-02  
2.61482162       7.39873734E-02  
2.61858940       7.40290387E-02  
2.62235718       7.38800225E-02  
2.62612496       7.36451645E-02  
2.62989274       7.33733189E-02  
2.63366052       7.33258540E-02  
2.63742830       7.33619495E-02  
2.64119608       7.33369023E-02  
2.64496386       7.33353663E-02  
2.64873164       7.34929481E-02  
2.65249942       7.34495120E-02  
2.65626720       7.36829848E-02  
2.66003498       7.37153214E-02  
2.66380276       7.35080514E-02  
2.66757054       7.31770821E-02  
2.67133832       7.29447071E-02  
2.67510610       7.26883832E-02  
2.67887388       7.23974549E-02  
2.68264166       7.20318392E-02  
2.68640944       7.15275030E-02  
2.69017722       7.10438201E-02  
2.69394500       7.02109083E-02  
2.69771278       6.96748012E-02  
2.70148056       6.91339126E-02  
2.70524834       6.86801490E-02  
2.70901612       6.81801262E-02  
2.71278390       6.78775491E-02  
2.71655168       6.75074086E-02  
2.72031946       6.70265999E-02  
2.72408724       6.68113242E-02  
2.72785502       6.66916539E-02  
2.73162279       6.64446572E-02  
2.73539057       6.59992989E-02  
2.73915835       6.56079883E-02  
2.74292613       6.55241135E-02  
2.74669391       6.52230947E-02  
2.75046169       6.49367891E-02  
2.75422947       6.44087236E-02  
2.75799725       6.41153172E-02  
2.76176503       6.38181154E-02  
2.76553281       6.37984488E-02  
2.76930059       6.37248424E-02  
2.77306837       6.38260181E-02  
2.77683615       6.38907712E-02  
2.78060393       6.41495556E-02  
2.78437171       6.43864751E-02  
2.78813949       6.45371555E-02  
2.79190727       6.48081485E-02  
2.79567505       6.50442357E-02  
2.79944283       6.53529365E-02  
2.80321061       6.54542692E-02  
2.80697839       6.56426132E-02  
2.81074617       6.57191249E-02  
2.81451395       6.58102894E-02  
2.81828173       6.58901929E-02  
2.82204951       6.59734966E-02  
2.82581729       6.60384268E-02  
2.82958507       6.61022950E-02  
2.83335285       6.61232741E-02  
2.83712063       6.61349400E-02  
2.84088841       6.62919561E-02  
2.84465619       6.63907531E-02  
2.84842397       6.64958443E-02  
2.85219175       6.65232306E-02  
2.85595953       6.65213244E-02  
2.85972731       6.65014024E-02  
2.86349509       6.64757509E-02  
2.86726287       6.65662359E-02  
2.87103065       6.65788877E-02  
2.87479843       6.66077259E-02  
2.87856621       6.66061112E-02  
2.88233399       6.66210397E-02  
2.88610177       6.64962863E-02  
2.88986954       6.64712261E-02  
2.89363732       6.65551977E-02  
2.89740510       6.65737640E-02  
2.90117288       6.65513123E-02  
2.90494066       6.64860384E-02  
2.90870844       6.64613461E-02  
2.91247622       6.63588892E-02  
2.91624400       6.63222301E-02  
2.92001178       6.63002851E-02  
2.92377956       6.61741430E-02  
2.92754734       6.61394581E-02  
2.93131512       6.59546409E-02  
2.93508290       6.57700968E-02  
2.93885068       6.54544047E-02  
2.94261846       6.52559655E-02  
2.94638624       6.51391235E-02  
2.95015402       6.49249532E-02  
2.95392180       6.47001180E-02  
2.95768958       6.44312120E-02  
2.96145736       6.41729731E-02  
2.96522514       6.39226730E-02  
2.96899292       6.36927086E-02  
2.97276070       6.35239336E-02  
2.97652848       6.35121750E-02  
2.98029626       6.33771520E-02  
2.98406404       6.32031735E-02  
2.98783182       6.30011096E-02  
2.99159960       6.29671481E-02  
2.99536738       6.28920519E-02  
2.99913516       6.28257949E-02  
3.00290294       6.27369050E-02  
3.00667072       6.25746409E-02  
3.01043850       6.23897552E-02  
3.01420628       6.22827612E-02  
3.01797406       6.21302676E-02  
3.02174184       6.19325780E-02  
3.02550962       6.16297884E-02  
3.02927740       6.13166186E-02  
3.03304518       6.10795574E-02  
3.03681296       6.09416307E-02  
3.04058074       6.07311045E-02  
3.04434852       6.06004913E-02  
3.04811629       6.04522575E-02  
3.05188407       6.03325653E-02  
3.05565185       6.01223405E-02  
3.05941963       5.99536479E-02  
3.06318741       5.99265326E-02  
3.06695519       6.00514431E-02  
3.07072297       6.01620156E-02  
3.07449075       6.01408605E-02  
3.07825853       6.01547612E-02  
3.08202631       6.02360919E-02  
3.08579409       6.04432807E-02  
3.08956187       6.06855349E-02  
3.09332965       6.09720013E-02  
3.09709743       6.13272134E-02  
3.10086521       6.16131527E-02  
3.10463299       6.18124298E-02  
3.10840077       6.20407269E-02  
3.11216855       6.22776542E-02  
3.11593633       6.25049091E-02  
3.11970411       6.27513645E-02  
3.12347189       6.32036387E-02  
3.12723967       6.35532909E-02  
3.13100745       6.39336086E-02  
3.13477523       6.41877908E-02  
3.13854301       6.44749898E-02  
3.14231079       6.48016959E-02  
3.14607857       6.51296105E-02  
3.14984635       6.55625042E-02  
3.15361413       6.58881264E-02  
3.15738191       6.62243271E-02  
3.16114969       6.65884377E-02  
3.16491747       6.68988612E-02  
3.16868525       6.72317717E-02  
3.17245303       6.76813270E-02  
3.17622081       6.81813448E-02  
3.17998859       6.86284149E-02  
3.18375637       6.90226042E-02  
3.18752415       6.93895959E-02  
3.19129193       6.97913340E-02  
3.19505971       7.01514411E-02  
3.19882749       7.05871330E-02  
3.20259526       7.09377908E-02  
3.20636304       7.12751110E-02  
3.21013082       7.15865959E-02  
3.21389860       7.17973031E-02  
3.21766638       7.20831336E-02  
3.22143416       7.24267299E-02  
3.22520194       7.28257300E-02  
3.22896972       7.31775107E-02  
3.23273750       7.34386153E-02  
3.23650528       7.36930422E-02  
3.24027306       7.39132775E-02  
3.24404084       7.41186393E-02  
3.24780862       7.44484821E-02  
3.25157640       7.47202863E-02  
3.25534418       7.49933127E-02  
3.25911196       7.53128804E-02  
3.26287974       7.56157328E-02  
3.26664752       7.58898683E-02  
3.27041530       7.62749888E-02  
3.27418308       7.65284615E-02  
3.27795086       7.67514018E-02  
3.28171864       7.70237096E-02  
3.28548642       7.72952102E-02  
3.28925420       7.75504864E-02  
3.29302198       7.78706368E-02  
3.29678976       7.81348269E-02  
3.30055754       7.83573566E-02  
3.30432532       7.85507003E-02  
3.30809310       7.87382072E-02  
3.31186088       7.89755665E-02  
3.31562866       7.91592786E-02  
3.31939644       7.93170197E-02  
3.32316422       7.94669662E-02  
3.32693200       7.96237869E-02  
3.33069978       7.97660775E-02  
3.33446756       7.96840269E-02  
3.33823534       7.96339699E-02  
3.34200312       7.92586882E-02  
3.34577090       7.85750291E-02  
3.34953868       7.78879341E-02  
3.35330646       7.63778062E-02  
3.35707424       7.46825944E-02  
3.36084201       7.34487662E-02  
3.36460979       7.37534472E-02  
3.36837757       7.40207485E-02  
3.37214535       7.53140848E-02  
3.37591313       7.75063468E-02  
3.37968091       7.95491464E-02  
3.38344869       8.03216648E-02  
3.38721647       8.09594509E-02  
3.39098425       8.14084385E-02  
3.39475203       8.12842689E-02  
3.39851981       8.11531554E-02  
3.40228759       8.09748172E-02  
3.40605537       8.07399442E-02  
3.40982315       8.06123323E-02  
3.41359093       8.05173337E-02  
3.41735871       8.04297014E-02  
3.42112649       8.03167613E-02  
3.42489427       8.03751592E-02  
3.42866205       8.04340791E-02  
3.43242983       8.04158755E-02  
3.43619761       8.04442618E-02  
3.43996539       8.04731661E-02  
3.44373317       8.04220067E-02  
3.44750095       8.03425206E-02  
3.45126873       8.04418147E-02  
3.45503651       8.04966331E-02  
3.45880429       8.05481591E-02  
3.46257207       8.07925324E-02  
3.46633985       8.11100943E-02  
3.47010763       8.13625313E-02  
3.47387541       8.15180955E-02  
3.47764319       8.17765674E-02  
3.48141097       8.20719229E-02  
3.48517875       8.23627402E-02  
3.48894653       8.26946530E-02  
3.49271431       8.30420569E-02  
3.49648209       8.33789726E-02  
3.50024987       8.37281327E-02  
3.50401765       8.40439507E-02  
3.50778543       8.44018329E-02  
3.51155321       8.48101737E-02  
3.51532098       8.51246693E-02  
3.51908876       8.54752736E-02  
3.52285654       8.57082091E-02  
3.52662432       8.59800456E-02  
3.53039210       8.62210348E-02  
3.53415988       8.64061744E-02  
3.53792766       8.66528448E-02  
3.54169544       8.68313261E-02  
3.54546322       8.70351727E-02  
3.54923100       8.71225026E-02  
3.55299878       8.73130925E-02  
3.55676656       8.74015418E-02  
3.56053434       8.74613523E-02  
3.56430212       8.75871284E-02  
3.56806990       8.77500908E-02  
3.57183768       8.79725057E-02  
3.57560546       8.80672403E-02  
3.57937324       8.83137328E-02  
3.58314102       8.84261843E-02  
3.58690880       8.86171855E-02  
3.59067658       8.87115095E-02  
3.59444436       8.87926682E-02  
3.59821214       8.88895938E-02  
3.60197992       8.89506522E-02  
3.60574770       8.91606077E-02  
3.60951548       8.92240726E-02  
3.61328326       8.92870915E-02  
3.61705104       8.93286285E-02  
3.62081882       8.94681581E-02  
3.62458660       8.95142730E-02  
3.62835438       8.95662615E-02  
3.63212216       8.95894452E-02  
3.63588994       8.96837728E-02  
3.63965772       8.97420257E-02  
3.64342550       8.98177015E-02  
3.64719328       8.99156385E-02  
3.65096106       9.01383781E-02  
3.65472884       9.02641266E-02  
3.65849662       9.03404095E-02  
3.66226440       9.04198591E-02  
3.66603218       9.05372739E-02  
3.66979996       9.06808801E-02  
3.67356773       9.07825432E-02  
3.67733551       9.08988419E-02  
3.68110329       9.09933999E-02  
3.68487107       9.10913092E-02  
3.68863885       9.11481909E-02  
3.69240663       9.12074592E-02  
3.69617441       9.13633917E-02  
3.69994219       9.13787474E-02  
3.70370997       9.13937417E-02  
3.70747775       9.14126119E-02  
3.71124553       9.14563630E-02  
3.71501331       9.14767099E-02  
3.71878109       9.15202626E-02  
3.72254887       9.15756665E-02  
3.72631665       9.16482153E-02  
3.73008443       9.16900458E-02  
3.73385221       9.17213368E-02  
3.73761999       9.18967264E-02  
3.74138777       9.20486988E-02  
3.74515555       9.20679942E-02  
3.74892333       9.20959325E-02  
3.75269111       9.21601614E-02  
3.75645889       9.22000905E-02  
3.76022667       9.22222238E-02  
3.76399445       9.22551363E-02  
3.76776223       9.23318195E-02  
3.77153001       9.23890858E-02  
3.77529779       9.24274560E-02  
3.77906557       9.25696901E-02  
3.78283335       9.26386450E-02  
3.78660113       9.27421540E-02  
3.79036891       9.27977425E-02  
3.79413669       9.27952666E-02  
3.79790447       9.28283099E-02  
3.80167225       9.28662692E-02  
3.80544003       9.29304331E-02  
3.80920781       9.29321366E-02  
3.81297559       9.29785061E-02  
3.81674337       9.30088643E-02  
3.82051115       9.31058615E-02  
3.82427893       9.30836521E-02  
3.82804671       9.30743827E-02  
3.83181448       9.30454187E-02  
3.83558226       9.30060447E-02  
3.83935004       9.30503505E-02  
3.84311782       9.30144075E-02  
3.84688560       9.30076979E-02  
3.85065338       9.29433831E-02  
3.85442116       9.28143805E-02  
3.85818894       9.28652390E-02  
3.86195672       9.27968683E-02  
3.86572450       9.27080812E-02  
3.86949228       9.26175586E-02  
3.87326006       9.25428185E-02  
3.87702784       9.24827548E-02  
3.88079562       9.23859014E-02  
3.88456340       9.23280924E-02  
3.88833118       9.22441930E-02  
3.89209896       9.21923887E-02  
3.89586674       9.21502076E-02  
3.89963452       9.22128991E-02  
3.90340230       9.21598434E-02  
3.90717008       9.21930655E-02  
3.91093786       9.22353867E-02  
3.91470564       9.23273976E-02  
3.91847342       9.23715083E-02  
3.92224120       9.24282451E-02  
3.92600898       9.25091591E-02  
3.92977676       9.25311479E-02  
3.93354454       9.25397603E-02  
3.93731232       9.25128678E-02  
3.94108010       9.25374055E-02  
3.94484788       9.24288397E-02  
3.94861566       9.21634930E-02  
3.95238344       9.17230623E-02  
3.95615122       9.11155657E-02  
3.95991900       9.02866958E-02  
3.96368678       8.92124134E-02  
3.96745456       8.77937510E-02  
3.97122234       8.61672880E-02  
3.97499012       8.40925069E-02  
3.97875790       8.17157630E-02  
3.98252568       7.88468042E-02  
3.98629345       7.55992743E-02  
3.99006123       7.20513434E-02  
3.99382901       6.81956168E-02  
3.99759679       6.40671346E-02  
4.00136457       5.97673480E-02  
4.00513235       5.53769892E-02  
4.00890013       5.09969927E-02  
4.01266791       4.66709600E-02  
4.01643569       4.24401798E-02  
4.02020347       3.84415170E-02  
4.02397125       3.46227872E-02  
4.02773903       3.10064708E-02  
4.03150681       2.76497504E-02  
4.03527459       2.45694554E-02  
4.03904237       2.17573829E-02  
4.04281015       1.92129284E-02  
4.04657793       1.69230479E-02  
4.05034571       1.48702572E-02  
4.05411349       1.30250011E-02  
4.05788127       1.13885324E-02  
4.06164905       9.94481462E-03  
4.06541683       8.66208848E-03  
4.06918461       7.52711702E-03  
4.07295239       6.54415966E-03  
4.07672017       5.67350808E-03  
4.08048795       4.90762491E-03  
4.08425573       4.24114700E-03  
4.08802351       3.65996162E-03  
4.09179129       3.15812233E-03  
4.09555907       2.71979117E-03  
4.09932685       2.34151586E-03  
4.10309463       2.01318436E-03  
4.10686241       1.73287473E-03  
4.11063019       1.49010585E-03  
4.11439797       1.28189586E-03  
4.11816575       1.09999860E-03  
4.12193353       9.44489854E-04  
4.12570131       8.11986443E-04  
4.12946909       7.00766426E-04  
4.13323687       6.02512980E-04  
4.13700465       5.17457879E-04  
4.14077243       4.43719497E-04  
4.14454020       3.81982082E-04  
4.14830798       3.31338835E-04  
4.15207576       2.86486096E-04  
4.15584354       2.45143947E-04  
4.15961132       2.10360645E-04  
4.16337910       1.84151621E-04  
4.16714688       1.59432962E-04  
4.17091466       1.36626779E-04  
4.17468244       1.16127600E-04  
4.17845022       1.00011165E-04  
4.18221800       8.78667606E-05  
4.18598578       7.77845129E-05  
4.18975356       6.38242079E-05  
4.19352134       5.31101032E-05  
4.19728912       4.73594115E-05  
4.20105690       4.03739248E-05  
4.20482468       3.23419191E-05  
4.20859246       2.51554148E-05  
4.21236024       2.09306980E-05  
4.21612802       1.98165845E-05  
4.21989580       1.59574304E-05  
