# F250M filter 
# Wavelength [microns]  |  Transmission efficiency
2.37551060       1.87067693E-05  
2.37607859       2.18992676E-05  
2.37664658       2.50971310E-05  
2.37721458       2.84789242E-05  
2.37778257       3.18881054E-05  
2.37835056       3.62333744E-05  
2.37891855       4.08625489E-05  
2.37948654       4.63648166E-05  
2.38005454       5.23322271E-05  
2.38062253       5.90199252E-05  
2.38119052       6.63009378E-05  
2.38175851       7.43037193E-05  
2.38232650       8.33078437E-05  
2.38289450       9.30071579E-05  
2.38346249       1.04228918E-04  
2.38403048       1.16028598E-04  
2.38459847       1.30140637E-04  
2.38516646       1.44522839E-04  
2.38573446       1.61902484E-04  
2.38630245       1.79271647E-04  
2.38687044       2.01463610E-04  
2.38743843       2.23905567E-04  
2.38800642       2.51302476E-04  
2.38857442       2.79369337E-04  
2.38914241       3.13121039E-04  
2.38971040       3.48849841E-04  
2.39027839       3.90742068E-04  
2.39084638       4.36301346E-04  
2.39141438       4.88426053E-04  
2.39198237       5.46787906E-04  
2.39255036       6.12197480E-04  
2.39311835       6.88226775E-04  
2.39368634       7.70692495E-04  
2.39425434       8.69593651E-04  
2.39482233       9.74116771E-04  
2.39539032       1.10371135E-03  
2.39595831       1.23545728E-03  
2.39652630       1.40664493E-03  
2.39709430       1.57792681E-03  
2.39766229       1.80183217E-03  
2.39823028       2.02921968E-03  
2.39879827       2.31891166E-03  
2.39936626       2.62195210E-03  
2.39993426       2.99602922E-03  
2.40050225       3.39905521E-03  
2.40107024       3.88080797E-03  
2.40163823       4.41595855E-03  
2.40220622       5.03409869E-03  
2.40277422       5.74123661E-03  
2.40334221       6.52864782E-03  
2.40391020       7.45310336E-03  
2.40447819       8.44576827E-03  
2.40504618       9.63619187E-03  
2.40561418       1.08711731E-02  
2.40618217       1.23720580E-02  
2.40675016       1.38835705E-02  
2.40731815       1.57277883E-02  
2.40788614       1.75744050E-02  
2.40845414       1.97393508E-02  
2.40902213       2.19379148E-02  
2.40959012       2.43858809E-02  
2.41015811       2.69001575E-02  
2.41072610       2.95698648E-02  
2.41129409       3.23135802E-02  
2.41186209       3.51104229E-02  
2.41243008       3.79482902E-02  
2.41299807       4.07521857E-02  
2.41356606       4.35136192E-02  
2.41413405       4.61910146E-02  
2.41470205       4.87008500E-02  
2.41527004       5.11253202E-02  
2.41583803       5.32492802E-02  
2.41640602       5.53243743E-02  
2.41697401       5.69977113E-02  
2.41754201       5.86708662E-02  
2.41811000       5.98979806E-02  
2.41867799       6.11226088E-02  
2.41924598       6.20080031E-02  
2.41981397       6.28470831E-02  
2.42038197       6.34686033E-02  
2.42094996       6.40244020E-02  
2.42151795       6.44870445E-02  
2.42208594       6.48781086E-02  
2.42265393       6.51630411E-02  
2.42322193       6.53883608E-02  
2.42378992       6.55828647E-02  
2.42435791       6.57355530E-02  
2.42492590       6.58773829E-02  
2.42549389       6.59949445E-02  
2.42606189       6.61099136E-02  
2.42662988       6.62141944E-02  
2.42719787       6.63171599E-02  
2.42776586       6.64197948E-02  
2.42833385       6.65216040E-02  
2.42890185       6.66304109E-02  
2.42946984       6.67386393E-02  
2.43003783       6.68526672E-02  
2.43060582       6.69704814E-02  
2.43117381       6.70913943E-02  
2.43174181       6.72128095E-02  
2.43230980       6.73344521E-02  
2.43287779       6.74563352E-02  
2.43344578       6.75762761E-02  
2.43401377       6.76945125E-02  
2.43458177       6.78104551E-02  
2.43514976       6.79228990E-02  
2.43571775       6.80332596E-02  
2.43628574       6.81380813E-02  
2.43685373       6.82433128E-02  
2.43742173       6.83440838E-02  
2.43798972       6.84443709E-02  
2.43855771       6.85327897E-02  
2.43912570       6.86214186E-02  
2.43969369       6.86972592E-02  
2.44026169       6.87727653E-02  
2.44082968       6.88364117E-02  
2.44139767       6.88976778E-02  
2.44196566       6.89512172E-02  
2.44253365       6.90024679E-02  
2.44310165       6.90467449E-02  
2.44366964       6.90868999E-02  
2.44423763       6.91224052E-02  
2.44480562       6.91528731E-02  
2.44537361       6.91805052E-02  
2.44594161       6.92023366E-02  
2.44650960       6.92227144E-02  
2.44707759       6.92316254E-02  
2.44764558       6.92015101E-02  
2.44821357       6.91826730E-02  
2.44878157       6.91924622E-02  
2.44934956       6.91841633E-02  
2.44991755       6.91681187E-02  
2.45048554       6.91500472E-02  
2.45105353       6.91316217E-02  
2.45162153       6.91113549E-02  
2.45218952       6.90907057E-02  
2.45275751       6.90685021E-02  
2.45332550       6.90457188E-02  
2.45389349       6.90224461E-02  
2.45446149       6.89993224E-02  
2.45502948       6.89819103E-02  
2.45559747       6.89718334E-02  
2.45616546       6.89620212E-02  
2.45673345       6.89522819E-02  
2.45730145       6.89429522E-02  
2.45786944       6.89345408E-02  
2.45843743       6.89265106E-02  
2.45900542       6.89196951E-02  
2.45957341       6.89128960E-02  
2.46014141       6.89066986E-02  
2.46070940       6.88964101E-02  
2.46127739       6.88879169E-02  
2.46184538       6.88797175E-02  
2.46241337       6.88743772E-02  
2.46298137       6.88699262E-02  
2.46354936       6.88681228E-02  
2.46411735       6.88676642E-02  
2.46468534       6.88690198E-02  
2.46525333       6.88719775E-02  
2.46582133       6.88763059E-02  
2.46638932       6.88825076E-02  
2.46695731       6.88903863E-02  
2.46752530       6.89019733E-02  
2.46809329       6.89162741E-02  
2.46866129       6.89437709E-02  
2.46922928       6.89674849E-02  
2.46979727       6.89884039E-02  
2.47036526       6.90183015E-02  
2.47093325       6.90585518E-02  
2.47150125       6.90894414E-02  
2.47206924       6.91247282E-02  
2.47263723       6.91694474E-02  
2.47320522       6.92333825E-02  
2.47377321       6.93219398E-02  
2.47434121       6.93960812E-02  
2.47490920       6.94602963E-02  
2.47547719       6.95185077E-02  
2.47604518       6.95788665E-02  
2.47661317       6.96493908E-02  
2.47718117       6.97181598E-02  
2.47774916       6.97796460E-02  
2.47831715       6.98473342E-02  
2.47888514       6.99199151E-02  
2.47945313       6.99942633E-02  
2.48002113       7.00681522E-02  
2.48058912       7.01322000E-02  
2.48115711       7.01863270E-02  
2.48172510       7.02130583E-02  
2.48229309       7.02629801E-02  
2.48286108       7.03336331E-02  
2.48342908       7.04017748E-02  
2.48399707       7.04694077E-02  
2.48456506       7.05258542E-02  
2.48513305       7.05813276E-02  
2.48570104       7.06423253E-02  
2.48626904       7.07007206E-02  
2.48683703       7.07562082E-02  
2.48740502       7.08100508E-02  
2.48797301       7.08615855E-02  
2.48854100       7.09013837E-02  
2.48910900       7.09385591E-02  
2.48967699       7.09826874E-02  
2.49024498       7.10168422E-02  
2.49081297       7.10484728E-02  
2.49138096       7.10727119E-02  
2.49194896       7.10968205E-02  
2.49251695       7.11206012E-02  
2.49308494       7.11449518E-02  
2.49365293       7.11668856E-02  
2.49422092       7.11881092E-02  
2.49478892       7.12028631E-02  
2.49535691       7.12143398E-02  
2.49592490       7.12228248E-02  
2.49649289       7.12287505E-02  
2.49706088       7.12300336E-02  
2.49762888       7.12250005E-02  
2.49819687       7.12166249E-02  
2.49876486       7.12022544E-02  
2.49933285       7.11761383E-02  
2.49990084       7.11423893E-02  
2.50046884       7.11136382E-02  
2.50103683       7.10795974E-02  
2.50160482       7.10522410E-02  
2.50217281       7.10189516E-02  
2.50274080       7.09853312E-02  
2.50330880       7.09496908E-02  
2.50387679       7.09141538E-02  
2.50444478       7.08817697E-02  
2.50501277       7.08485396E-02  
2.50558076       7.08114512E-02  
2.50614876       7.07725109E-02  
2.50671675       7.07312592E-02  
2.50728474       7.06853665E-02  
2.50785273       7.06399306E-02  
2.50842072       7.05917809E-02  
2.50898872       7.05430443E-02  
2.50955671       7.04945779E-02  
2.51012470       7.04476339E-02  
2.51069269       7.04027475E-02  
2.51126068       7.03582054E-02  
2.51182868       7.03221035E-02  
2.51239667       7.03016331E-02  
2.51296466       7.02931772E-02  
2.51353265       7.02804989E-02  
2.51410064       7.02646389E-02  
2.51466864       7.02484334E-02  
2.51523663       7.02221709E-02  
2.51580462       7.01972456E-02  
2.51637261       7.01791368E-02  
2.51694060       7.01646468E-02  
2.51750860       7.01519352E-02  
2.51807659       7.01417075E-02  
2.51864458       7.01333023E-02  
2.51921257       7.01320275E-02  
2.51978056       7.01322153E-02  
2.52034856       7.01344915E-02  
2.52091655       7.01361904E-02  
2.52148454       7.01399503E-02  
2.52205253       7.01456377E-02  
2.52262052       7.01549729E-02  
2.52318852       7.01579373E-02  
2.52375651       7.01612462E-02  
2.52432450       7.01655229E-02  
2.52489249       7.01715493E-02  
2.52546048       7.01777037E-02  
2.52602848       7.01855834E-02  
2.52659647       7.01942994E-02  
2.52716446       7.02019380E-02  
2.52773245       7.02091406E-02  
2.52830044       7.02181976E-02  
2.52886844       7.02346180E-02  
2.52943643       7.02514380E-02  
2.53000442       7.02662962E-02  
2.53057241       7.02846062E-02  
2.53114040       7.03036251E-02  
2.53170840       7.03230228E-02  
2.53227639       7.03477058E-02  
2.53284438       7.03689520E-02  
2.53341237       7.03900125E-02  
2.53398036       7.04130506E-02  
2.53454836       7.04359158E-02  
2.53511635       7.04573829E-02  
2.53568434       7.04729353E-02  
2.53625233       7.04875723E-02  
2.53682032       7.05037901E-02  
2.53738832       7.05196739E-02  
2.53795631       7.05309762E-02  
2.53852430       7.05394022E-02  
2.53909229       7.05488128E-02  
2.53966028       7.05659568E-02  
2.54022828       7.05817632E-02  
2.54079627       7.05931244E-02  
2.54136426       7.06038150E-02  
2.54193225       7.06085347E-02  
2.54250024       7.06084709E-02  
2.54306824       7.06042365E-02  
2.54363623       7.05991214E-02  
2.54420422       7.05908761E-02  
2.54477221       7.05935704E-02  
2.54534020       7.05991513E-02  
2.54590820       7.06023990E-02  
2.54647619       7.05972715E-02  
2.54704418       7.05908743E-02  
2.54761217       7.05835879E-02  
2.54818016       7.05754455E-02  
2.54874816       7.05600355E-02  
2.54931615       7.05390158E-02  
2.54988414       7.05153482E-02  
2.55045213       7.04915228E-02  
2.55102012       7.04682145E-02  
2.55158812       7.04454669E-02  
2.55215611       7.04231292E-02  
2.55272410       7.04034718E-02  
2.55329209       7.03845109E-02  
2.55386008       7.03555592E-02  
2.55442807       7.03292325E-02  
2.55499607       7.02958932E-02  
2.55556406       7.02615026E-02  
2.55613205       7.02202906E-02  
2.55670004       7.01781769E-02  
2.55726803       7.01281708E-02  
2.55783603       7.00752795E-02  
2.55840402       7.00193823E-02  
2.55897201       6.99603928E-02  
2.55954000       6.98955032E-02  
2.56010799       6.98247858E-02  
2.56067599       6.97512159E-02  
2.56124398       6.96742301E-02  
2.56181197       6.95959504E-02  
2.56237996       6.95120357E-02  
2.56294795       6.94274245E-02  
2.56351595       6.93407192E-02  
2.56408394       6.92528026E-02  
2.56465193       6.91591117E-02  
2.56521992       6.90637639E-02  
2.56578791       6.89719314E-02  
2.56635591       6.88832552E-02  
2.56692390       6.88018968E-02  
2.56749189       6.87235757E-02  
2.56805988       6.86534420E-02  
2.56862787       6.85853001E-02  
2.56919587       6.85226125E-02  
2.56976386       6.84672414E-02  
2.57033185       6.84451239E-02  
2.57089984       6.84500647E-02  
2.57146783       6.84276282E-02  
2.57203583       6.84192509E-02  
2.57260382       6.84192929E-02  
2.57317181       6.84442849E-02  
2.57373980       6.84718968E-02  
2.57430779       6.85224878E-02  
2.57487579       6.85756476E-02  
2.57544378       6.86457783E-02  
2.57601177       6.87049324E-02  
2.57657976       6.87803398E-02  
2.57714775       6.88494063E-02  
2.57771575       6.88830942E-02  
2.57828374       6.89365342E-02  
2.57885173       6.89908346E-02  
2.57941972       6.90331899E-02  
2.57998771       6.90361152E-02  
2.58055571       6.90099609E-02  
2.58112370       6.89360374E-02  
2.58169169       6.87999649E-02  
2.58225968       6.86134338E-02  
2.58282767       6.83213040E-02  
2.58339567       6.79865180E-02  
2.58396366       6.74810047E-02  
2.58453165       6.69473611E-02  
2.58509964       6.61699927E-02  
2.58566763       6.53930741E-02  
2.58623563       6.43345227E-02  
2.58680362       6.32703588E-02  
2.58737161       6.19391873E-02  
2.58793960       6.05734753E-02  
2.58850759       5.89780050E-02  
2.58907559       5.73007723E-02  
2.58964358       5.54333082E-02  
2.59021157       5.34625378E-02  
2.59077956       5.13698119E-02  
2.59134755       4.91649550E-02  
2.59191555       4.68888336E-02  
2.59248354       4.45083531E-02  
2.59305153       4.21047737E-02  
2.59361952       3.96482023E-02  
2.59418751       3.71771425E-02  
2.59475551       3.46634408E-02  
2.59532350       3.21708944E-02  
2.59589149       2.98049612E-02  
2.59645948       2.74385299E-02  
2.59702747       2.52691978E-02  
2.59759547       2.31233389E-02  
2.59816346       2.11668444E-02  
2.59873145       1.92393319E-02  
2.59929944       1.75020136E-02  
2.59986743       1.58378941E-02  
2.60043543       1.43321249E-02  
2.60100342       1.29309136E-02  
2.60157141       1.16498318E-02  
2.60213940       1.04938559E-02  
2.60270739       9.42252617E-03  
2.60327539       8.49074387E-03  
2.60384338       7.60893380E-03  
2.60441137       6.86663990E-03  
2.60497936       6.14602394E-03  
2.60554735       5.54770325E-03  
2.60611535       4.95383849E-03  
2.60668334       4.48658022E-03  
2.60725133       4.02001857E-03  
2.60781932       3.64312608E-03  
2.60838731       3.27461118E-03  
2.60895531       2.96705342E-03  
2.60952330       2.67431190E-03  
2.61009129       2.42407309E-03  
2.61065928       2.19288935E-03  
2.61122727       1.98880920E-03  
2.61179527       1.80472488E-03  
2.61236326       1.63752499E-03  
2.61293125       1.49002557E-03  
2.61349924       1.35246607E-03  
2.61406723       1.23479220E-03  
2.61463523       1.12309637E-03  
2.61520322       1.02810375E-03  
2.61577121       9.35333525E-04  
2.61633920       8.59282601E-04  
2.61690719       7.83277063E-04  
2.61747519       7.21823642E-04  
2.61804318       6.60295540E-04  
2.61861117       6.08264537E-04  
2.61917916       5.57419716E-04  
2.61974715       5.14344318E-04  
2.62031515       4.73469033E-04  
2.62088314       4.37057866E-04  
2.62145113       4.02970266E-04  
2.62201912       3.72117300E-04  
2.62258711       3.43907213E-04  
2.62315511       3.18227230E-04  
2.62372310       2.95818737E-04  
2.62429109       2.74496763E-04  
2.62485908       2.55516139E-04  
2.62542707       2.37189863E-04  
2.62599506       2.21393756E-04  
2.62656306       2.05833272E-04  
2.62713105       1.92709593E-04  
2.62769904       1.79588228E-04  
2.62826703       1.67961498E-04  
2.62883502       1.56377566E-04  
2.62940302       1.46869660E-04  
2.62997101       1.37706735E-04  
2.63053900       1.29486435E-04  
2.63110699       1.21590686E-04  
2.63167498       1.14251254E-04  
2.63224298       1.07231772E-04  
2.63281097       1.01224158E-04  
2.63337896       9.61709953E-05  
2.63394695       9.10404155E-05  
2.63451494       8.58515224E-05  
2.63508294       8.08893172E-05  
2.63565093       7.64625519E-05  
2.63621892       7.22019543E-05  
2.63678691       6.87451095E-05  
2.63735490       6.53019149E-05  
2.63792290       6.20769299E-05  
2.63849089       5.88507326E-05  
2.63905888       5.66280059E-05  
2.63962687       5.44563850E-05  
2.64019486       5.21193476E-05  
2.64076286       4.97510788E-05  
2.64133085       4.74032898E-05  
2.64189884       4.50619064E-05  
2.64246683       4.33233493E-05  
2.64303482       4.19850193E-05  
2.64360282       4.04593260E-05  
2.64417081       3.87395072E-05  
2.64473880       3.70896430E-05  
2.64530679       3.55517326E-05  
2.64587478       3.41145315E-05  
2.64644278       3.29664017E-05  
2.64701077       3.17867630E-05  
2.64757876       3.04150881E-05  
2.64814675       2.90605171E-05  
2.64871474       2.82763791E-05  
2.64928274       2.74942740E-05  
2.64985073       2.62804948E-05  
2.65041872       2.50123126E-05  
2.65098671       2.41665503E-05  
2.65155470       2.34403484E-05  
2.65212270       2.29992997E-05  
2.65269069       2.26996441E-05  
2.65325868       2.19051476E-05  
2.65382667       2.07359975E-05  
2.65439466       1.98617958E-05  
2.65496266       1.93400056E-05  
2.65553065       1.88487197E-05  
2.65609864       1.84166019E-05  
2.65666663       1.78845390E-05  
2.65723462       1.70157790E-05  
2.65780262       1.62107156E-05  
2.65837061       1.58969731E-05  
2.65893860       1.55834897E-05  
