# F480M filter 
# Wavelength [microns]  |  Transmission efficiency
4.50000000       2.12881445E-05  
4.50120150       2.21906192E-05  
4.50240300       2.23353669E-05  
4.50360449       2.29685973E-05  
4.50480599       2.39837268E-05  
4.50600749       2.52648592E-05  
4.50720899       2.58620511E-05  
4.50841049       2.64774983E-05  
4.50961198       2.76441565E-05  
4.51081348       2.92149415E-05  
4.51201498       3.06916735E-05  
4.51321648       3.16492819E-05  
4.51441798       3.26451492E-05  
4.51561947       3.48934451E-05  
4.51682097       3.68786204E-05  
4.51802247       3.83894091E-05  
4.51922397       3.93020447E-05  
4.52042547       4.06618164E-05  
4.52162696       4.30487129E-05  
4.52282846       4.56656101E-05  
4.52402996       4.79513671E-05  
4.52523146       4.98224083E-05  
4.52643296       5.25055038E-05  
4.52763445       5.62377299E-05  
4.52883595       5.93744848E-05  
4.53003745       6.22923022E-05  
4.53123895       6.54531647E-05  
4.53244045       6.94814368E-05  
4.53364194       7.46316882E-05  
4.53484344       7.91546565E-05  
4.53604494       8.31173866E-05  
4.53724644       8.72261308E-05  
4.53844794       9.26085671E-05  
4.53964943       9.88195544E-05  
4.54085093       1.04727114E-04  
4.54205243       1.10584987E-04  
4.54325393       1.17111042E-04  
4.54445543       1.24537487E-04  
4.54565692       1.32985409E-04  
4.54685842       1.40672464E-04  
4.54805992       1.48619659E-04  
4.54926142       1.57529583E-04  
4.55046292       1.67305948E-04  
4.55166441       1.77407759E-04  
4.55286591       1.87205885E-04  
4.55406741       1.97292587E-04  
4.55526891       2.08875724E-04  
4.55647041       2.21372699E-04  
4.55767190       2.34653972E-04  
4.55887340       2.46957516E-04  
4.56007490       2.60383570E-04  
4.56127640       2.75629478E-04  
4.56247790       2.92032514E-04  
4.56367939       3.08612694E-04  
4.56488089       3.25318753E-04  
4.56608239       3.42761592E-04  
4.56728389       3.62818476E-04  
4.56848539       3.83661793E-04  
4.56968688       4.05145117E-04  
4.57088838       4.26403182E-04  
4.57208988       4.50150950E-04  
4.57329138       4.76124413E-04  
4.57449288       5.03606744E-04  
4.57569437       5.31663303E-04  
4.57689587       5.60548255E-04  
4.57809737       5.90670347E-04  
4.57929887       6.25001627E-04  
4.58050037       6.60854492E-04  
4.58170186       6.98075550E-04  
4.58290336       7.36964673E-04  
4.58410486       7.78819184E-04  
4.58530636       8.24335391E-04  
4.58650786       8.72448840E-04  
4.58770935       9.21953039E-04  
4.58891085       9.74303580E-04  
4.59011235       1.02976531E-03  
4.59131385       1.09163681E-03  
4.59251535       1.15612843E-03  
4.59371684       1.22321427E-03  
4.59491834       1.29459153E-03  
4.59611984       1.37129249E-03  
4.59732134       1.45377906E-03  
4.59852284       1.54143069E-03  
4.59972433       1.63208142E-03  
4.60092583       1.72875115E-03  
4.60212733       1.83282017E-03  
4.60332883       1.94539227E-03  
4.60453033       2.06427819E-03  
4.60573182       2.18899971E-03  
4.60693332       2.32184596E-03  
4.60813482       2.46440528E-03  
4.60933632       2.61657911E-03  
4.61053782       2.77887538E-03  
4.61173931       2.94938451E-03  
4.61294081       3.13289864E-03  
4.61414231       3.32992723E-03  
4.61534381       3.54033036E-03  
4.61654531       3.76352131E-03  
4.61774680       3.99915883E-03  
4.61894830       4.24987505E-03  
4.62014980       4.51910697E-03  
4.62135130       4.80566177E-03  
4.62255280       5.11116740E-03  
4.62375429       5.43603998E-03  
4.62495579       5.78126738E-03  
4.62615729       6.15023118E-03  
4.62735879       6.54212389E-03  
4.62856029       6.95723463E-03  
4.62976178       7.39625463E-03  
4.63096328       7.86120167E-03  
4.63216478       8.35724746E-03  
4.63336628       8.88510474E-03  
4.63456778       9.44740829E-03  
4.63576927       1.00419630E-02  
4.63697077       1.06713145E-02  
4.63817227       1.13401476E-02  
4.63937377       1.20480655E-02  
4.64057527       1.27945327E-02  
4.64177676       1.35795064E-02  
4.64297826       1.44003119E-02  
4.64417976       1.52662142E-02  
4.64538126       1.61860605E-02  
4.64658276       1.71440216E-02  
4.64778425       1.81480824E-02  
4.64898575       1.91987773E-02  
4.65018725       2.02939897E-02  
4.65138875       2.14436083E-02  
4.65259025       2.26450540E-02  
4.65379174       2.38699178E-02  
4.65499324       2.51335531E-02  
4.65619474       2.64549348E-02  
4.65739624       2.78147690E-02  
4.65859774       2.92079029E-02  
4.65979923       3.06411099E-02  
4.66100073       3.21002489E-02  
4.66220223       3.35799864E-02  
4.66340373       3.50922843E-02  
4.66460523       3.66322999E-02  
4.66580672       3.81476336E-02  
4.66700822       3.96885706E-02  
4.66820972       4.12378391E-02  
4.66941122       4.27594254E-02  
4.67061272       4.42754052E-02  
4.67181421       4.57770784E-02  
4.67301571       4.72425720E-02  
4.67421721       4.86725151E-02  
4.67541871       5.00840405E-02  
4.67662021       5.14329931E-02  
4.67782170       5.27151085E-02  
4.67902320       5.39654516E-02  
4.68022470       5.51235155E-02  
4.68142620       5.62187423E-02  
4.68262770       5.72694514E-02  
4.68382919       5.82453033E-02  
4.68503069       5.91267688E-02  
4.68623219       5.99607034E-02  
4.68743369       6.07253290E-02  
4.68863519       6.13827753E-02  
4.68983668       6.19960653E-02  
4.69103818       6.25358526E-02  
4.69223968       6.30077867E-02  
4.69344118       6.34308747E-02  
4.69464268       6.37996848E-02  
4.69584417       6.41034947E-02  
4.69704567       6.43692415E-02  
4.69824717       6.46655543E-02  
4.69944867       6.48147329E-02  
4.70065017       6.49414412E-02  
4.70185166       6.50382876E-02  
4.70305316       6.51048636E-02  
4.70425466       6.51508532E-02  
4.70545616       6.51784502E-02  
4.70665766       6.51852897E-02  
4.70785915       6.51791547E-02  
4.70906065       6.51644493E-02  
4.71026215       6.51360307E-02  
4.71146365       6.51026567E-02  
4.71266515       6.50585910E-02  
4.71386664       6.50031674E-02  
4.71506814       6.49430565E-02  
4.71626964       6.48840766E-02  
4.71747114       6.48258999E-02  
4.71867264       6.47649003E-02  
4.71987413       6.47007719E-02  
4.72107563       6.46164298E-02  
4.72227713       6.45289241E-02  
4.72347863       6.44393714E-02  
4.72468013       6.43537541E-02  
4.72588162       6.42726614E-02  
4.72708312       6.41959107E-02  
4.72828462       6.41230513E-02  
4.72948612       6.40505201E-02  
4.73068762       6.39771030E-02  
4.73188911       6.38988873E-02  
4.73309061       6.38218200E-02  
4.73429211       6.37661123E-02  
4.73549361       6.37420410E-02  
4.73669511       6.36698005E-02  
4.73789660       6.35972657E-02  
4.73909810       6.35257890E-02  
4.74029960       6.34581088E-02  
4.74150110       6.33921007E-02  
4.74270260       6.33258778E-02  
4.74390409       6.32506881E-02  
4.74510559       6.31689436E-02  
4.74630709       6.30814121E-02  
4.74750859       6.29938106E-02  
4.74871009       6.29111561E-02  
4.74991158       6.28336720E-02  
4.75111308       6.27580651E-02  
4.75231458       6.26823653E-02  
4.75351608       6.26015919E-02  
4.75471758       6.25197359E-02  
4.75591907       6.24366925E-02  
4.75712057       6.23531527E-02  
4.75832207       6.22697045E-02  
4.75952357       6.21868882E-02  
4.76072507       6.21058064E-02  
4.76192656       6.20269307E-02  
4.76312806       6.19466369E-02  
4.76432956       6.18653174E-02  
4.76553106       6.17812818E-02  
4.76673256       6.16938044E-02  
4.76793405       6.15997940E-02  
4.76913555       6.15017970E-02  
4.77033705       6.14025092E-02  
4.77153855       6.13039316E-02  
4.77274005       6.12093148E-02  
4.77394154       6.11181953E-02  
4.77514304       6.10369207E-02  
4.77634454       6.09586575E-02  
4.77754604       6.08850245E-02  
4.77874754       6.08138736E-02  
4.77994903       6.07439487E-02  
4.78115053       6.06744986E-02  
4.78235203       6.06069573E-02  
4.78355353       6.05412827E-02  
4.78475503       6.04777758E-02  
4.78595652       6.04135525E-02  
4.78715802       6.03485175E-02  
4.78835952       6.02804632E-02  
4.78956102       6.02117205E-02  
4.79076252       6.01433702E-02  
4.79196401       6.00763528E-02  
4.79316551       6.00111710E-02  
4.79436701       5.99469883E-02  
4.79556851       5.98845238E-02  
4.79677001       5.98224439E-02  
4.79797150       5.97604822E-02  
4.79917300       5.96966526E-02  
4.80037450       5.96327284E-02  
4.80157600       5.95695427E-02  
4.80277749       5.95079333E-02  
4.80397899       5.94487467E-02  
4.80518049       5.93909993E-02  
4.80638199       5.93344210E-02  
4.80758349       5.92766527E-02  
4.80878498       5.92676514E-02  
4.80998648       5.92178249E-02  
4.81118798       5.91508948E-02  
4.81238948       5.90828332E-02  
4.81359098       5.90150448E-02  
4.81479247       5.89488998E-02  
4.81599397       5.88832966E-02  
4.81719547       5.88130981E-02  
4.81839697       5.87398019E-02  
4.81959847       5.86554147E-02  
4.82079996       5.85699905E-02  
4.82200146       5.84839414E-02  
4.82320296       5.83998472E-02  
4.82440446       5.83184356E-02  
4.82560596       5.82394223E-02  
4.82680745       5.81637163E-02  
4.82800895       5.80883999E-02  
4.82921045       5.80135325E-02  
4.83041195       5.79313104E-02  
4.83161345       5.78461359E-02  
4.83281494       5.77572066E-02  
4.83401644       5.76677745E-02  
4.83521794       5.75801097E-02  
4.83641944       5.74935898E-02  
4.83762094       5.74068072E-02  
4.83882243       5.73196385E-02  
4.84002393       5.72305278E-02  
4.84122543       5.71423599E-02  
4.84242693       5.70553058E-02  
4.84362843       5.69644334E-02  
4.84482992       5.68700682E-02  
4.84603142       5.67708874E-02  
4.84723292       5.66668388E-02  
4.84843442       5.65623801E-02  
4.84963592       5.64574444E-02  
4.85083741       5.63540763E-02  
4.85203891       5.62518014E-02  
4.85324041       5.61557239E-02  
4.85444191       5.60618925E-02  
4.85564341       5.59695723E-02  
4.85684490       5.58739852E-02  
4.85804640       5.57717060E-02  
4.85924790       5.56657059E-02  
4.86044940       5.55551409E-02  
4.86165090       5.54452866E-02  
4.86285239       5.53371481E-02  
4.86405389       5.52253964E-02  
4.86525539       5.51111502E-02  
4.86645689       5.49938084E-02  
4.86765839       5.48742212E-02  
4.86885988       5.47533413E-02  
4.87006138       5.46293399E-02  
4.87126288       5.44985186E-02  
4.87246438       5.43629142E-02  
4.87366588       5.42247061E-02  
4.87486737       5.40869674E-02  
4.87606887       5.39563821E-02  
4.87727037       5.38774736E-02  
4.87847187       5.37354427E-02  
4.87967337       5.35811026E-02  
4.88087486       5.34274707E-02  
4.88207636       5.32746364E-02  
4.88327786       5.31237778E-02  
4.88447936       5.29732996E-02  
4.88568086       5.28234179E-02  
4.88688235       5.26740843E-02  
4.88808385       5.25250900E-02  
4.88928535       5.23758714E-02  
4.89048685       5.22266057E-02  
4.89168835       5.20788235E-02  
4.89288984       5.19339800E-02  
4.89409134       5.17939769E-02  
4.89529284       5.16575369E-02  
4.89649434       5.15252213E-02  
4.89769584       5.13958970E-02  
4.89889733       5.12746330E-02  
4.90009883       5.11619602E-02  
4.90130033       5.10561705E-02  
4.90250183       5.09563375E-02  
4.90370333       5.08550029E-02  
4.90490482       5.07529310E-02  
4.90610632       5.06467956E-02  
4.90730782       5.05400997E-02  
4.90850932       5.04328022E-02  
4.90971082       5.03221413E-02  
4.91091231       5.02074349E-02  
4.91211381       5.00882512E-02  
4.91331531       4.99637218E-02  
4.91451681       4.98350492E-02  
4.91571831       4.96906391E-02  
4.91691980       4.95289092E-02  
4.91812130       4.93442788E-02  
4.91932280       4.91333165E-02  
4.92052430       4.89050142E-02  
4.92172580       4.86493520E-02  
4.92292729       4.83626386E-02  
4.92412879       4.80549612E-02  
4.92533029       4.77037879E-02  
4.92653179       4.73252684E-02  
4.92773329       4.69185320E-02  
4.92893478       4.64690666E-02  
4.93013628       4.60030198E-02  
4.93133778       4.54911385E-02  
4.93253928       4.49444099E-02  
4.93374078       4.43803224E-02  
4.93494227       4.37852382E-02  
4.93614377       4.31682285E-02  
4.93734527       4.25373623E-02  
4.93854677       4.18655684E-02  
4.93974827       4.11967047E-02  
4.94094976       4.05092495E-02  
4.94215126       3.98622439E-02  
4.94335276       3.91704456E-02  
4.94455426       3.84729177E-02  
4.94575576       3.77764010E-02  
4.94695725       3.70887707E-02  
4.94815875       3.64120535E-02  
4.94936025       3.57616769E-02  
4.95056175       3.51243495E-02  
4.95176325       3.45065700E-02  
4.95296474       3.39052621E-02  
4.95416624       3.33223037E-02  
4.95536774       3.27617612E-02  
4.95656924       3.22221813E-02  
4.95777074       3.16984607E-02  
4.95897223       3.11965830E-02  
4.96017373       3.07082989E-02  
4.96137523       3.02416467E-02  
4.96257673       2.97962036E-02  
4.96377823       2.93674705E-02  
4.96497972       2.89531792E-02  
4.96618122       2.85504546E-02  
4.96738272       2.81563936E-02  
4.96858422       2.77749723E-02  
4.96978572       2.74039848E-02  
4.97098721       2.70430452E-02  
4.97218871       2.66844600E-02  
4.97339021       2.63295148E-02  
4.97459171       2.59786663E-02  
4.97579321       2.56311887E-02  
4.97699470       2.52881504E-02  
4.97819620       2.49465283E-02  
4.97939770       2.45908329E-02  
4.98059920       2.42380172E-02  
4.98180070       2.38714436E-02  
4.98300219       2.35029905E-02  
4.98420369       2.31309374E-02  
4.98540519       2.27475107E-02  
4.98660669       2.23560357E-02  
4.98780819       2.19555153E-02  
4.98900968       2.15410194E-02  
4.99021118       2.11273863E-02  
4.99141268       2.06960724E-02  
4.99261418       2.02595069E-02  
4.99381568       1.98059854E-02  
4.99501717       1.93414226E-02  
4.99621867       1.88713900E-02  
4.99742017       1.83920863E-02  
4.99862167       1.79068849E-02  
4.99982317       1.74188801E-02  
5.00102466       1.69082436E-02  
5.00222616       1.64221765E-02  
5.00342766       1.59223299E-02  
5.00462916       1.54244988E-02  
5.00583066       1.49261037E-02  
5.00703215       1.44231967E-02  
5.00823365       1.39241586E-02  
5.00943515       1.34340416E-02  
5.01063665       1.29321636E-02  
5.01183815       1.24423914E-02  
5.01303964       1.19492945E-02  
5.01424114       1.14703755E-02  
5.01544264       1.09926607E-02  
5.01664414       1.05251365E-02  
5.01784564       1.00691093E-02  
5.01904713       9.62374891E-03  
5.02024863       9.19066909E-03  
5.02145013       8.77034273E-03  
5.02265163       8.35679438E-03  
5.02385313       7.96081221E-03  
5.02505462       7.57717541E-03  
5.02625612       7.20990732E-03  
5.02745762       6.85572203E-03  
5.02865912       6.51431667E-03  
5.02986062       6.18542670E-03  
5.03106211       5.86979752E-03  
5.03226361       5.56901933E-03  
5.03346511       5.28275377E-03  
5.03466661       5.00905060E-03  
5.03586811       4.75032877E-03  
5.03706960       4.50032510E-03  
5.03827110       4.26276489E-03  
5.03947260       4.03791653E-03  
5.04067410       3.82481091E-03  
5.04187560       3.62251416E-03  
5.04307709       3.43018202E-03  
5.04427859       3.24677000E-03  
5.04548009       3.07248084E-03  
5.04668159       2.91039102E-03  
5.04788309       2.75722551E-03  
5.04908458       2.61166438E-03  
5.05028608       2.47339257E-03  
5.05148758       2.34161807E-03  
5.05268908       2.21649372E-03  
5.05389058       2.09916070E-03  
5.05509207       1.98948697E-03  
5.05629357       1.88544476E-03  
5.05749507       1.78728786E-03  
5.05869657       1.69365926E-03  
5.05989807       1.60462753E-03  
5.06109956       1.52171522E-03  
5.06230106       1.44422112E-03  
5.06350256       1.37083576E-03  
5.06470406       1.30105105E-03  
5.06590556       1.23467823E-03  
5.06710705       1.17137937E-03  
5.06830855       1.11258736E-03  
5.06951005       1.05802903E-03  
5.07071155       1.00593694E-03  
5.07191305       9.55981527E-04  
5.07311454       9.08323607E-04  
5.07431604       8.63036341E-04  
5.07551754       8.20483553E-04  
5.07671904       7.81565292E-04  
5.07792054       7.45506807E-04  
5.07912203       7.09462639E-04  
5.08032353       6.75117354E-04  
5.08152503       6.42557205E-04  
5.08272653       6.12008894E-04  
5.08392803       5.83775584E-04  
5.08512952       5.57232128E-04  
5.08633102       5.31308198E-04  
5.08753252       5.06115599E-04  
5.08873402       4.82409392E-04  
5.08993552       4.60117226E-04  
5.09113701       4.39858872E-04  
5.09233851       4.20870371E-04  
5.09354001       4.01892338E-04  
5.09474151       3.83222003E-04  
5.09594301       3.65621034E-04  
5.09714450       3.49245474E-04  
5.09834600       3.33894268E-04  
5.09954750       3.19911279E-04  
