# F410M filter 
# Wavelength [microns]  |  Transmission efficiency
3.66453960       1.59580805E-05  
3.66626993       1.59417918E-05  
3.66800027       1.64742505E-05  
3.66973060       1.64605428E-05  
3.67146094       1.68485416E-05  
3.67319127       1.76940538E-05  
3.67492161       1.89919970E-05  
3.67665194       2.00452025E-05  
3.67838228       2.08535967E-05  
3.68011261       2.22051443E-05  
3.68184295       2.33697932E-05  
3.68357328       2.44032872E-05  
3.68530362       2.51142043E-05  
3.68703395       2.66970292E-05  
3.68876429       2.77489156E-05  
3.69049462       3.04388470E-05  
3.69222495       3.26500642E-05  
3.69395529       3.44647379E-05  
3.69568562       3.57274905E-05  
3.69741596       3.75698006E-05  
3.69914629       4.03088728E-05  
3.70087663       4.28856687E-05  
3.70260696       4.60349823E-05  
3.70433730       4.90631397E-05  
3.70606763       5.28314061E-05  
3.70779797       5.65787172E-05  
3.70952830       6.04652815E-05  
3.71125864       6.40532700E-05  
3.71298897       6.85968656E-05  
3.71471931       7.32414380E-05  
3.71644964       7.80961133E-05  
3.71817997       8.32161279E-05  
3.71991031       8.83607184E-05  
3.72164064       9.50671419E-05  
3.72337098       1.02226907E-04  
3.72510131       1.09924147E-04  
3.72683165       1.17911422E-04  
3.72856198       1.27716569E-04  
3.73029232       1.37202656E-04  
3.73202265       1.47021549E-04  
3.73375299       1.57773646E-04  
3.73548332       1.69762599E-04  
3.73721366       1.83069511E-04  
3.73894399       1.96529713E-04  
3.74067433       2.12030523E-04  
3.74240466       2.28066758E-04  
3.74413499       2.45584148E-04  
3.74586533       2.63746231E-04  
3.74759566       2.83378603E-04  
3.74932600       3.04892584E-04  
3.75105633       3.28842701E-04  
3.75278667       3.55137616E-04  
3.75451700       3.82329638E-04  
3.75624734       4.11967862E-04  
3.75797767       4.43422361E-04  
3.75970801       4.78374633E-04  
3.76143834       5.15749348E-04  
3.76316868       5.55854350E-04  
3.76489901       5.99502603E-04  
3.76662935       6.46638095E-04  
3.76835968       6.97965460E-04  
3.77009001       7.52431905E-04  
3.77182035       8.12061122E-04  
3.77355068       8.75959156E-04  
3.77528102       9.45550447E-04  
3.77701135       1.02268753E-03  
3.77874169       1.10406651E-03  
3.78047202       1.19221598E-03  
3.78220236       1.28761455E-03  
3.78393269       1.39314800E-03  
3.78566303       1.50681858E-03  
3.78739336       1.62978958E-03  
3.78912370       1.76291357E-03  
3.79085403       1.90704750E-03  
3.79258437       2.06377146E-03  
3.79431470       2.23272151E-03  
3.79604503       2.42028928E-03  
3.79777537       2.62281847E-03  
3.79950570       2.84289872E-03  
3.80123604       3.08293832E-03  
3.80296637       3.34572209E-03  
3.80469671       3.63215740E-03  
3.80642704       3.94120185E-03  
3.80815738       4.28207971E-03  
3.80988771       4.65040485E-03  
3.81161805       5.05149915E-03  
3.81334838       5.48982429E-03  
3.81507872       5.96860229E-03  
3.81680905       6.48723563E-03  
3.81853939       7.05543043E-03  
3.82026972       7.67057302E-03  
3.82200005       8.33585105E-03  
3.82373039       9.05621040E-03  
3.82546072       9.83901056E-03  
3.82719106       1.06878091E-02  
3.82892139       1.15995663E-02  
3.83065173       1.25771251E-02  
3.83238206       1.36350778E-02  
3.83411240       1.47670477E-02  
3.83584273       1.59749148E-02  
3.83757307       1.72586867E-02  
3.83930340       1.86452393E-02  
3.84103374       2.00919014E-02  
3.84276407       2.16147119E-02  
3.84449441       2.32227998E-02  
3.84622474       2.49028496E-02  
3.84795507       2.66444115E-02  
3.84968541       2.84452778E-02  
3.85141574       3.03007206E-02  
3.85314608       3.21989690E-02  
3.85487641       3.41390889E-02  
3.85660675       3.61226609E-02  
3.85833708       3.81815444E-02  
3.86006742       4.02095102E-02  
3.86179775       4.22409246E-02  
3.86352809       4.42624511E-02  
3.86525842       4.62828483E-02  
3.86698876       4.82908421E-02  
3.86871909       5.02755335E-02  
3.87044943       5.22405850E-02  
3.87217976       5.41803877E-02  
3.87391009       5.60916542E-02  
3.87564043       5.79696710E-02  
3.87737076       5.98102985E-02  
3.87910110       6.16022056E-02  
3.88083143       6.33457123E-02  
3.88256177       6.50534084E-02  
3.88429210       6.67081102E-02  
3.88602244       6.83014684E-02  
3.88775277       6.98265709E-02  
3.88948311       7.12952132E-02  
3.89121344       7.27100352E-02  
3.89294378       7.40622922E-02  
3.89467411       7.53373231E-02  
3.89640445       7.65352361E-02  
3.89813478       7.77495783E-02  
3.89986512       7.88021594E-02  
3.90159545       7.97514219E-02  
3.90332578       8.06190293E-02  
3.90505612       8.14294293E-02  
3.90678645       8.21801966E-02  
3.90851679       8.28629477E-02  
3.91024712       8.34671858E-02  
3.91197746       8.39965761E-02  
3.91370779       8.44522207E-02  
3.91543813       8.49438176E-02  
3.91716846       8.52830119E-02  
3.91889880       8.55600569E-02  
3.92062913       8.58093200E-02  
3.92235947       8.60323586E-02  
3.92408980       8.62270514E-02  
3.92582014       8.63843293E-02  
3.92755047       8.65048301E-02  
3.92928080       8.65961166E-02  
3.93101114       8.66572006E-02  
3.93274147       8.67152815E-02  
3.93447181       8.67597906E-02  
3.93620214       8.67746485E-02  
3.93793248       8.68903389E-02  
3.93966281       8.69309723E-02  
3.94139315       8.69776869E-02  
3.94312348       8.70255515E-02  
3.94485382       8.70620812E-02  
3.94658415       8.70929121E-02  
3.94831449       8.71126152E-02  
3.95004482       8.71246547E-02  
3.95177516       8.71325564E-02  
3.95350549       8.71495593E-02  
3.95523582       8.71700261E-02  
3.95696616       8.71958216E-02  
3.95869649       8.72242684E-02  
3.96042683       8.72604603E-02  
3.96215716       8.73068833E-02  
3.96388750       8.73503913E-02  
3.96561783       8.73780938E-02  
3.96734817       8.73900522E-02  
3.96907850       8.74128788E-02  
3.97080884       8.75365876E-02  
3.97253917       8.75855855E-02  
3.97426951       8.76288155E-02  
3.97599984       8.76714309E-02  
3.97773018       8.77811763E-02  
3.97946051       8.78281984E-02  
3.98119084       8.78425038E-02  
3.98292118       8.78568528E-02  
3.98465151       8.78589345E-02  
3.98638185       8.78722023E-02  
3.98811218       8.78987742E-02  
3.98984252       8.79257023E-02  
3.99157285       8.79482465E-02  
3.99330319       8.79618439E-02  
3.99503352       8.79655551E-02  
3.99676386       8.79623384E-02  
3.99849419       8.79539465E-02  
4.00022453       8.79385143E-02  
4.00195486       8.79141431E-02  
4.00368520       8.78877964E-02  
4.00541553       8.78782286E-02  
4.00714586       8.78922377E-02  
4.00887620       8.79106007E-02  
4.01060653       8.79273862E-02  
4.01233687       8.79377546E-02  
4.01406720       8.79260477E-02  
4.01579754       8.79096948E-02  
4.01752787       8.79109079E-02  
4.01925821       8.80104835E-02  
4.02098854       8.81023705E-02  
4.02271888       8.81011266E-02  
4.02444921       8.80948761E-02  
4.02617955       8.80851812E-02  
4.02790988       8.80713706E-02  
4.02964022       8.80506886E-02  
4.03137055       8.80301082E-02  
4.03310088       8.80122823E-02  
4.03483122       8.79999494E-02  
4.03656155       8.79927899E-02  
4.03829189       8.79875693E-02  
4.04002222       8.79865019E-02  
4.04175256       8.79994049E-02  
4.04348289       8.80091161E-02  
4.04521323       8.80146467E-02  
4.04694356       8.80167304E-02  
4.04867390       8.80312121E-02  
4.05040423       8.80399106E-02  
4.05213457       8.80220774E-02  
4.05386490       8.80018486E-02  
4.05559524       8.80027213E-02  
4.05732557       8.80202751E-02  
4.05905590       8.80410049E-02  
4.06078624       8.81230499E-02  
4.06251657       8.81382465E-02  
4.06424691       8.81466453E-02  
4.06597724       8.81454935E-02  
4.06770758       8.81203247E-02  
4.06943791       8.80975409E-02  
4.07116825       8.81064567E-02  
4.07289858       8.82340302E-02  
4.07462892       8.82933521E-02  
4.07635925       8.83280570E-02  
4.07808959       8.83352366E-02  
4.07981992       8.83295566E-02  
4.08155026       8.83309327E-02  
4.08328059       8.83333920E-02  
4.08501092       8.83075251E-02  
4.08674126       8.82777886E-02  
4.08847159       8.82741143E-02  
4.09020193       8.82879894E-02  
4.09193226       8.82956035E-02  
4.09366260       8.83005181E-02  
4.09539293       8.82945323E-02  
4.09712327       8.82703296E-02  
4.09885360       8.82456573E-02  
4.10058394       8.82166176E-02  
4.10231427       8.81762602E-02  
4.10404461       8.82469742E-02  
4.10577494       8.82299969E-02  
4.10750528       8.82135720E-02  
4.10923561       8.81847718E-02  
4.11096594       8.81493735E-02  
4.11269628       8.81159474E-02  
4.11442661       8.80921795E-02  
4.11615695       8.80818227E-02  
4.11788728       8.80742262E-02  
4.11961762       8.81592709E-02  
4.12134795       8.81384330E-02  
4.12307829       8.81094627E-02  
4.12480862       8.80796269E-02  
4.12653896       8.80535272E-02  
4.12826929       8.80352039E-02  
4.12999963       8.80233893E-02  
4.13172996       8.79989682E-02  
4.13346030       8.79762796E-02  
4.13519063       8.79538318E-02  
4.13692096       8.79283591E-02  
4.13865130       8.78995282E-02  
4.14038163       8.78815306E-02  
4.14211197       8.78986216E-02  
4.14384230       8.79305803E-02  
4.14557264       8.79660878E-02  
4.14730297       8.80247140E-02  
4.14903331       8.81230611E-02  
4.15076364       8.81503731E-02  
4.15249398       8.81777261E-02  
4.15422431       8.82072479E-02  
4.15595465       8.82281420E-02  
4.15768498       8.82362714E-02  
4.15941532       8.82524885E-02  
4.16114565       8.83907912E-02  
4.16287598       8.84432102E-02  
4.16460632       8.84928010E-02  
4.16633665       8.85254151E-02  
4.16806699       8.85468003E-02  
4.16979732       8.85677596E-02  
4.17152766       8.85915635E-02  
4.17325799       8.86117959E-02  
4.17498833       8.86257675E-02  
4.17671866       8.86386236E-02  
4.17844900       8.86553405E-02  
4.18017933       8.86705203E-02  
4.18190967       8.86779389E-02  
4.18364000       8.86848561E-02  
4.18537034       8.86923789E-02  
4.18710067       8.86951903E-02  
4.18883100       8.86917350E-02  
4.19056134       8.86695149E-02  
4.19229167       8.86230755E-02  
4.19402201       8.86704865E-02  
4.19575234       8.86303072E-02  
4.19748268       8.85896674E-02  
4.19921301       8.85350352E-02  
4.20094335       8.84733611E-02  
4.20267368       8.84108637E-02  
4.20440402       8.84391074E-02  
4.20613435       8.83662901E-02  
4.20786469       8.82886719E-02  
4.20959502       8.81952326E-02  
4.21132536       8.81055351E-02  
4.21305569       8.80385348E-02  
4.21478602       8.79619526E-02  
4.21651636       8.78668859E-02  
4.21824669       8.77696781E-02  
4.21997703       8.76792434E-02  
4.22170736       8.75851019E-02  
4.22343770       8.74929034E-02  
4.22516803       8.74017812E-02  
4.22689837       8.73067814E-02  
4.22862870       8.72021277E-02  
4.23035904       8.70842002E-02  
4.23208937       8.69584473E-02  
4.23381971       8.68302118E-02  
4.23555004       8.66922163E-02  
4.23728038       8.65416543E-02  
4.23901071       8.63642252E-02  
4.24074104       8.61702534E-02  
4.24247138       8.60216750E-02  
4.24420171       8.58695352E-02  
4.24593205       8.56032733E-02  
4.24766238       8.53602833E-02  
4.24939272       8.50544995E-02  
4.25112305       8.46458150E-02  
4.25285339       8.41702317E-02  
4.25458372       8.36460205E-02  
4.25631406       8.30693817E-02  
4.25804439       8.24188432E-02  
4.25977473       8.16935410E-02  
4.26150506       8.07165104E-02  
4.26323540       7.96186059E-02  
4.26496573       7.84327840E-02  
4.26669606       7.71642696E-02  
4.26842640       7.57885042E-02  
4.27015673       7.43042417E-02  
4.27188707       7.26825810E-02  
4.27361740       7.10392507E-02  
4.27534774       6.94317914E-02  
4.27707807       6.78845810E-02  
4.27880841       6.63450736E-02  
4.28053874       6.48966623E-02  
4.28226908       6.37202322E-02  
4.28399941       6.23970208E-02  
4.28572975       6.09359161E-02  
4.28746008       5.93812956E-02  
4.28919042       5.77741355E-02  
4.29092075       5.59467932E-02  
4.29265108       5.39358079E-02  
4.29438142       5.20020790E-02  
4.29611175       5.00200882E-02  
4.29784209       4.79947067E-02  
4.29957242       4.59815767E-02  
4.30130276       4.39827691E-02  
4.30303309       4.19993848E-02  
4.30476343       4.00536276E-02  
4.30649376       3.81543710E-02  
4.30822410       3.62976039E-02  
4.30995443       3.44907140E-02  
4.31168477       3.27427351E-02  
4.31341510       3.10573296E-02  
4.31514544       2.94256559E-02  
4.31687577       2.78520622E-02  
4.31860611       2.63401998E-02  
4.32033644       2.48934072E-02  
4.32206677       2.35023697E-02  
4.32379711       2.21658776E-02  
4.32552744       2.08899201E-02  
4.32725778       1.96742546E-02  
4.32898811       1.85153301E-02  
4.33071845       1.74083109E-02  
4.33244878       1.63571100E-02  
4.33417912       1.53559419E-02  
4.33590945       1.44051322E-02  
4.33763979       1.35049887E-02  
4.33937012       1.26549535E-02  
4.34110046       1.18493497E-02  
4.34283079       1.10826200E-02  
4.34456113       1.03601052E-02  
4.34629146       9.68903793E-03  
4.34802179       9.04458711E-03  
4.34975213       8.43803280E-03  
4.35148246       7.87623632E-03  
4.35321280       7.34579507E-03  
4.35494313       6.84003041E-03  
4.35667347       6.36911126E-03  
4.35840380       5.92699316E-03  
4.36013414       5.51103475E-03  
4.36186447       5.12427342E-03  
4.36359481       4.76436191E-03  
4.36532514       4.42580333E-03  
4.36705548       4.11047950E-03  
4.36878581       3.81842440E-03  
4.37051615       3.54533016E-03  
4.37224648       3.29029777E-03  
4.37397681       3.05276785E-03  
4.37570715       2.83285007E-03  
4.37743748       2.62931461E-03  
4.37916782       2.44051953E-03  
4.38089815       2.26388696E-03  
4.38262849       2.10007308E-03  
4.38435882       1.94872347E-03  
4.38608916       1.80693647E-03  
4.38781949       1.67723081E-03  
4.38954983       1.55740130E-03  
4.39128016       1.44496332E-03  
4.39301050       1.34150143E-03  
4.39474083       1.24694737E-03  
4.39647117       1.15821260E-03  
4.39820150       1.07577132E-03  
4.39993183       1.00118577E-03  
4.40166217       9.31669634E-04  
4.40339250       8.66555173E-04  
4.40512284       8.07464428E-04  
4.40685317       7.53030807E-04  
4.40858351       7.00582805E-04  
4.41031384       6.53042074E-04  
4.41204418       6.09842656E-04  
4.41377451       5.69708741E-04  
4.41550485       5.32851866E-04  
4.41723518       4.98331809E-04  
4.41896552       4.65570646E-04  
4.42069585       4.35659641E-04  
4.42242619       4.08380036E-04  
4.42415652       3.82197033E-04  
4.42588685       3.57855870E-04  
4.42761719       3.35895881E-04  
4.42934752       3.14638067E-04  
4.43107786       2.95154285E-04  
4.43280819       2.77761242E-04  
4.43453853       2.60829970E-04  
4.43626886       2.45073295E-04  
4.43799920       2.31082842E-04  
4.43972953       2.17539221E-04  
4.44145987       2.04560594E-04  
4.44319020       1.93095367E-04  
4.44492054       1.81898175E-04  
4.44665087       1.70634005E-04  
4.44838121       1.61193544E-04  
4.45011154       1.53240891E-04  
4.45184187       1.44946594E-04  
4.45357221       1.37464110E-04  
4.45530254       1.30251785E-04  
4.45703288       1.22643429E-04  
4.45876321       1.15652939E-04  
4.46049355       1.09501470E-04  
4.46222388       1.03375385E-04  
4.46395422       9.79375697E-05  
4.46568455       9.38366938E-05  
4.46741489       8.91806603E-05  
4.46914522       8.40533962E-05  
4.47087556       7.96858626E-05  
4.47260589       7.50398899E-05  
4.47433623       7.08244448E-05  
4.47606656       6.80092501E-05  
4.47779689       6.56903280E-05  
4.47952723       6.24544037E-05  
4.48125756       5.94424915E-05  
4.48298790       5.69607668E-05  
4.48471823       5.37309121E-05  
4.48644857       5.10292585E-05  
4.48817890       4.90228703E-05  
4.48990924       4.62798255E-05  
4.49163957       4.34323404E-05  
4.49336991       4.12720766E-05  
4.49510024       3.93308344E-05  
4.49683058       3.73151948E-05  
4.49856091       3.63364175E-05  
4.50029125       3.51105605E-05  
4.50202158       3.31947089E-05  
4.50375191       3.21524142E-05  
4.50548225       3.11065213E-05  
4.50721258       2.92269196E-05  
4.50894292       2.74217685E-05  
4.51067325       2.63727817E-05  
4.51240359       2.49298488E-05  
4.51413392       2.34933721E-05  
4.51586426       2.28833346E-05  
4.51759459       2.10108259E-05  
4.51932493       1.89135505E-05  
4.52105526       1.81664580E-05  
4.52278560       1.77784603E-05  
4.52451593       1.68728685E-05  
4.52624627       1.61354431E-05  
4.52797660       1.60342933E-05  
