# F200W filter 
# Wavelength [microns]  |  Transmission efficiency
1.68840000       3.40942275E-06  
1.68962645       3.77354805E-06  
1.69085291       4.18518419E-06  
1.69207936       4.66714974E-06  
1.69330581       5.22341920E-06  
1.69453226       5.89155466E-06  
1.69575872       6.64861021E-06  
1.69698517       7.56833997E-06  
1.69821162       8.62914987E-06  
1.69943808       9.89226297E-06  
1.70066453       1.14224093E-05  
1.70189098       1.31899914E-05  
1.70311743       1.53068329E-05  
1.70434389       1.77937565E-05  
1.70557034       2.07277633E-05  
1.70679679       2.41946902E-05  
1.70802325       2.82391593E-05  
1.70924970       3.29359442E-05  
1.71047615       3.85246285E-05  
1.71170261       4.49661878E-05  
1.71292906       5.24615093E-05  
1.71415551       6.11917639E-05  
1.71538196       7.13329872E-05  
1.71660842       8.38131816E-05  
1.71783487       9.82120870E-05  
1.71906132       1.15091670E-04  
1.72028778       1.35182601E-04  
1.72151423       1.59551569E-04  
1.72274068       1.89686880E-04  
1.72396713       2.25903101E-04  
1.72519359       2.69531150E-04  
1.72642004       3.23718116E-04  
1.72764649       3.92570207E-04  
1.72887295       4.78812306E-04  
1.73009940       5.85159515E-04  
1.73132585       7.13341706E-04  
1.73255230       8.74199649E-04  
1.73377876       1.05794176E-03  
1.73500521       1.25199049E-03  
1.73623166       1.45278490E-03  
1.73745812       1.65805128E-03  
1.73868457       1.89030793E-03  
1.73991102       2.14349543E-03  
1.74113747       2.43985045E-03  
1.74236393       2.79003777E-03  
1.74359038       3.20880503E-03  
1.74481683       3.69914909E-03  
1.74604329       4.28453285E-03  
1.74726974       4.98869222E-03  
1.74849619       5.84775767E-03  
1.74972265       6.84845938E-03  
1.75094910       7.97352937E-03  
1.75217555       9.19195421E-03  
1.75340200       1.04644410E-02  
1.75462846       1.17646285E-02  
1.75585491       1.30252076E-02  
1.75708136       1.42080572E-02  
1.75830782       1.52959242E-02  
1.75953427       1.62705272E-02  
1.76076072       1.71587154E-02  
1.76198717       1.79949118E-02  
1.76321363       1.87866425E-02  
1.76444008       1.95449639E-02  
1.76566653       2.02927819E-02  
1.76689299       2.10231966E-02  
1.76811944       2.16966924E-02  
1.76934589       2.23129582E-02  
1.77057234       2.28852933E-02  
1.77179880       2.33998094E-02  
1.77302525       2.38445856E-02  
1.77425170       2.42076046E-02  
1.77547816       2.45145983E-02  
1.77670461       2.47850102E-02  
1.77793106       2.50299316E-02  
1.77915752       2.52594330E-02  
1.78038397       2.54875614E-02  
1.78161042       2.56950287E-02  
1.78283687       2.59155678E-02  
1.78406333       2.61510665E-02  
1.78528978       2.64039929E-02  
1.78651623       2.66473256E-02  
1.78774269       2.69045621E-02  
1.78896914       2.71809824E-02  
1.79019559       2.74447457E-02  
1.79142204       2.76912033E-02  
1.79264850       2.79123720E-02  
1.79387495       2.80928898E-02  
1.79510140       2.82676060E-02  
1.79632786       2.84372531E-02  
1.79755431       2.86078645E-02  
1.79878076       2.87517315E-02  
1.80000721       2.88778076E-02  
1.80123367       2.90216497E-02  
1.80246012       2.91698012E-02  
1.80368657       2.93237557E-02  
1.80491303       2.94824314E-02  
1.80613948       2.96831006E-02  
1.80736593       2.99554885E-02  
1.80859238       3.01856531E-02  
1.80981884       3.04166535E-02  
1.81104529       3.06749437E-02  
1.81227174       3.10090434E-02  
1.81349820       3.13492875E-02  
1.81472465       3.16915486E-02  
1.81595110       3.20491455E-02  
1.81717756       3.24229905E-02  
1.81840401       3.28026643E-02  
1.81963046       3.31703578E-02  
1.82085691       3.35411274E-02  
1.82208337       3.39742289E-02  
1.82330982       3.43568395E-02  
1.82453627       3.47328061E-02  
1.82576273       3.51263239E-02  
1.82698918       3.55223951E-02  
1.82821563       3.58920237E-02  
1.82944208       3.62546612E-02  
1.83066854       3.66536470E-02  
1.83189499       3.70303912E-02  
1.83312144       3.74011835E-02  
1.83434790       3.77449955E-02  
1.83557435       3.80632517E-02  
1.83680080       3.84303674E-02  
1.83802725       3.87686341E-02  
1.83925371       3.90868895E-02  
1.84048016       3.94318673E-02  
1.84170661       3.97159358E-02  
1.84293307       4.00219597E-02  
1.84415952       4.03063693E-02  
1.84538597       4.05877658E-02  
1.84661242       4.08346021E-02  
1.84783888       4.10685429E-02  
1.84906533       4.13674413E-02  
1.85029178       4.16312485E-02  
1.85151824       4.18594830E-02  
1.85274469       4.21154434E-02  
1.85397114       4.23523620E-02  
1.85519760       4.26279397E-02  
1.85642405       4.28713723E-02  
1.85765050       4.31740186E-02  
1.85887695       4.34207290E-02  
1.86010341       4.36603932E-02  
1.86132986       4.38971460E-02  
1.86255631       4.41305562E-02  
1.86378277       4.44108406E-02  
1.86500922       4.47013460E-02  
1.86623567       4.49932654E-02  
1.86746212       4.52855606E-02  
1.86868858       4.56253825E-02  
1.86991503       4.59710959E-02  
1.87114148       4.63520214E-02  
1.87236794       4.67205735E-02  
1.87359439       4.71531219E-02  
1.87482084       4.75478394E-02  
1.87604729       4.78903234E-02  
1.87727375       4.82018001E-02  
1.87850020       4.85444440E-02  
1.87972665       4.88853867E-02  
1.88095311       4.92512353E-02  
1.88217956       4.96134641E-02  
1.88340601       5.00050134E-02  
1.88463246       5.03503172E-02  
1.88585892       5.06625328E-02  
1.88708537       5.10040867E-02  
1.88831182       5.13249784E-02  
1.88953828       5.16095324E-02  
1.89076473       5.18574021E-02  
1.89199118       5.21550332E-02  
1.89321764       5.24172854E-02  
1.89444409       5.27080237E-02  
1.89567054       5.30049940E-02  
1.89689699       5.32602063E-02  
1.89812345       5.34773057E-02  
1.89934990       5.37373470E-02  
1.90057635       5.39546246E-02  
1.90180281       5.41807597E-02  
1.90302926       5.44673369E-02  
1.90425571       5.47060131E-02  
1.90548216       5.49320719E-02  
1.90670862       5.52168946E-02  
1.90793507       5.55100800E-02  
1.90916152       5.57006187E-02  
1.91038798       5.58643402E-02  
1.91161443       5.61226078E-02  
1.91284088       5.63827689E-02  
1.91406733       5.65556133E-02  
1.91529379       5.66962450E-02  
1.91652024       5.68069485E-02  
1.91774669       5.69750166E-02  
1.91897315       5.71061597E-02  
1.92019960       5.72018264E-02  
1.92142605       5.72799651E-02  
1.92265251       5.73783596E-02  
1.92387896       5.74762741E-02  
1.92510541       5.74931747E-02  
1.92633186       5.75393921E-02  
1.92755832       5.76794910E-02  
1.92878477       5.77615448E-02  
1.93001122       5.78013886E-02  
1.93123768       5.78099555E-02  
1.93246413       5.78626933E-02  
1.93369058       5.78869871E-02  
1.93491703       5.79005898E-02  
1.93614349       5.79228133E-02  
1.93736994       5.79221830E-02  
1.93859639       5.79532830E-02  
1.93982285       5.80165162E-02  
1.94104930       5.81099634E-02  
1.94227575       5.82457066E-02  
1.94350220       5.83612589E-02  
1.94472866       5.84804597E-02  
1.94595511       5.86694057E-02  
1.94718156       5.87843898E-02  
1.94840802       5.89024001E-02  
1.94963447       5.89499326E-02  
1.95086092       5.90403755E-02  
1.95208737       5.91283389E-02  
1.95331383       5.92044359E-02  
1.95454028       5.92524556E-02  
1.95576673       5.93250412E-02  
1.95699319       5.93756580E-02  
1.95821964       5.92881503E-02  
1.95944609       5.90321758E-02  
1.96067255       5.89927717E-02  
1.96189900       5.92740090E-02  
1.96312545       5.95764004E-02  
1.96435190       5.97005807E-02  
1.96557836       5.97323502E-02  
1.96680481       5.97149732E-02  
1.96803126       5.97837933E-02  
1.96925772       5.98651784E-02  
1.97048417       5.98040431E-02  
1.97171062       5.97895788E-02  
1.97293707       5.97813178E-02  
1.97416353       5.97170001E-02  
1.97538998       5.97018992E-02  
1.97661643       5.97373274E-02  
1.97784289       5.97401634E-02  
1.97906934       5.97747491E-02  
1.98029579       5.98179740E-02  
1.98152224       5.99213252E-02  
1.98274870       5.99035996E-02  
1.98397515       5.99124435E-02  
1.98520160       5.99393562E-02  
1.98642806       5.99431645E-02  
1.98765451       5.99920424E-02  
1.98888096       6.00785497E-02  
1.99010741       6.00997903E-02  
1.99133387       6.01454010E-02  
1.99256032       6.01800358E-02  
1.99378677       6.02225133E-02  
1.99501323       6.01135830E-02  
1.99623968       5.99180146E-02  
1.99746613       5.98983968E-02  
1.99869259       6.00080570E-02  
1.99991904       6.01036675E-02  
2.00114549       6.01434595E-02  
2.00237194       6.01579694E-02  
2.00359840       6.02353741E-02  
2.00482485       6.02054756E-02  
2.00605130       6.01194110E-02  
2.00727776       6.00487578E-02  
2.00850421       5.99838536E-02  
2.00973066       6.00171791E-02  
2.01095711       5.99911686E-02  
2.01218357       5.99605251E-02  
2.01341002       5.99601704E-02  
2.01463647       5.99930742E-02  
2.01586293       6.00832542E-02  
2.01708938       6.01365498E-02  
2.01831583       6.01832079E-02  
2.01954228       6.01385565E-02  
2.02076874       6.01453143E-02  
2.02199519       6.01644333E-02  
2.02322164       6.03086259E-02  
2.02444810       6.04812536E-02  
2.02567455       6.06163649E-02  
2.02690100       6.07115522E-02  
2.02812745       6.07288724E-02  
2.02935391       6.07927936E-02  
2.03058036       6.08353627E-02  
2.03180681       6.08516756E-02  
2.03303327       6.08873713E-02  
2.03425972       6.08783385E-02  
2.03548617       6.08355578E-02  
2.03671263       6.08309604E-02  
2.03793908       6.08311770E-02  
2.03916553       6.09284334E-02  
2.04039198       6.08826274E-02  
2.04161844       6.07314502E-02  
2.04284489       6.06094261E-02  
2.04407134       6.04305766E-02  
2.04529780       6.02869797E-02  
2.04652425       6.01744119E-02  
2.04775070       6.00673737E-02  
2.04897715       5.99268068E-02  
2.05020361       5.98827832E-02  
2.05143006       5.98465318E-02  
2.05265651       5.98301730E-02  
2.05388297       5.97589315E-02  
2.05510942       5.97353001E-02  
2.05633587       5.97021871E-02  
2.05756232       5.96420304E-02  
2.05878878       5.96225130E-02  
2.06001523       5.96692735E-02  
2.06124168       5.98115839E-02  
2.06246814       5.98612511E-02  
2.06369459       5.99420426E-02  
2.06492104       6.00353150E-02  
2.06614749       6.00965894E-02  
2.06737395       6.02268434E-02  
2.06860040       6.03609939E-02  
2.06982685       6.04449972E-02  
2.07105331       6.05858751E-02  
2.07227976       6.07529668E-02  
2.07350621       6.08585764E-02  
2.07473267       6.09549307E-02  
2.07595912       6.10024564E-02  
2.07718557       6.09939924E-02  
2.07841202       6.09552223E-02  
2.07963848       6.09938619E-02  
2.08086493       6.10394704E-02  
2.08209138       6.10138628E-02  
2.08331784       6.10322284E-02  
2.08454429       6.10741344E-02  
2.08577074       6.10220660E-02  
2.08699719       6.09054897E-02  
2.08822365       6.07954636E-02  
2.08945010       6.06754804E-02  
2.09067655       6.05993905E-02  
2.09190301       6.04246362E-02  
2.09312946       6.03121318E-02  
2.09435591       6.03742639E-02  
2.09558236       6.03314870E-02  
2.09680882       6.02160470E-02  
2.09803527       6.00598747E-02  
2.09926172       5.99625951E-02  
2.10048818       5.98710517E-02  
2.10171463       5.97872444E-02  
2.10294108       5.96643528E-02  
2.10416754       5.96292405E-02  
2.10539399       5.96238275E-02  
2.10662044       5.94637773E-02  
2.10784689       5.93806579E-02  
2.10907335       5.92733232E-02  
2.11029980       5.91777186E-02  
2.11152625       5.90544331E-02  
2.11275271       5.90121890E-02  
2.11397916       5.88952953E-02  
2.11520561       5.87586674E-02  
2.11643206       5.87164872E-02  
2.11765852       5.87131609E-02  
2.11888497       5.86517514E-02  
2.12011142       5.85326062E-02  
2.12133788       5.84891624E-02  
2.12256433       5.84575596E-02  
2.12379078       5.83725800E-02  
2.12501723       5.82818374E-02  
2.12624369       5.82246221E-02  
2.12747014       5.82073292E-02  
2.12869659       5.80723851E-02  
2.12992305       5.80291217E-02  
2.13114950       5.79872721E-02  
2.13237595       5.79773712E-02  
2.13360240       5.79648808E-02  
2.13482886       5.79811196E-02  
2.13605531       5.78981739E-02  
2.13728176       5.78843125E-02  
2.13850822       5.78859347E-02  
2.13973467       5.79687095E-02  
2.14096112       5.79939390E-02  
2.14218758       5.79802489E-02  
2.14341403       5.79793824E-02  
2.14464048       5.80588840E-02  
2.14586693       5.80973463E-02  
2.14709339       5.80317039E-02  
2.14831984       5.80506784E-02  
2.14954629       5.81326800E-02  
2.15077275       5.80569860E-02  
2.15199920       5.79403588E-02  
2.15322565       5.78430253E-02  
2.15445210       5.76918493E-02  
2.15567856       5.74845661E-02  
2.15690501       5.73384348E-02  
2.15813146       5.71510198E-02  
2.15935792       5.69016122E-02  
2.16058437       5.66254643E-02  
2.16181082       5.63430800E-02  
2.16303727       5.60223049E-02  
2.16426373       5.58152232E-02  
2.16549018       5.55597168E-02  
2.16671663       5.53144270E-02  
2.16794309       5.50759973E-02  
2.16916954       5.48725242E-02  
2.17039599       5.47040357E-02  
2.17162244       5.45717810E-02  
2.17284890       5.45319522E-02  
2.17407535       5.45395680E-02  
2.17530180       5.45712861E-02  
2.17652826       5.47134957E-02  
2.17775471       5.49717051E-02  
2.17898116       5.52216470E-02  
2.18020762       5.54672621E-02  
2.18143407       5.57289325E-02  
2.18266052       5.60578928E-02  
2.18388697       5.64510941E-02  
2.18511343       5.67604337E-02  
2.18633988       5.69705439E-02  
2.18756633       5.69707296E-02  
2.18879279       5.68993792E-02  
2.19001924       5.66887158E-02  
2.19124569       5.63482067E-02  
2.19247214       5.58850020E-02  
2.19369860       5.53523624E-02  
2.19492505       5.47816085E-02  
2.19615150       5.41762366E-02  
2.19737796       5.36463257E-02  
2.19860441       5.31195468E-02  
2.19983086       5.25956342E-02  
2.20105731       5.21270515E-02  
2.20228377       5.18387855E-02  
2.20351022       5.16290979E-02  
2.20473667       5.15310611E-02  
2.20596313       5.14849297E-02  
2.20718958       5.15177983E-02  
2.20841603       5.15771557E-02  
2.20964248       5.15631493E-02  
2.21086894       5.14046041E-02  
2.21209539       5.10736661E-02  
2.21332184       5.04892738E-02  
2.21454830       4.95556555E-02  
2.21577475       4.83209786E-02  
2.21700120       4.67208403E-02  
2.21822766       4.48034455E-02  
2.21945411       4.25993524E-02  
2.22068056       4.01208160E-02  
2.22190701       3.74189334E-02  
2.22313347       3.46304144E-02  
2.22435992       3.17063178E-02  
2.22558637       2.88269935E-02  
2.22681283       2.60857237E-02  
2.22803928       2.35204885E-02  
2.22926573       2.11493070E-02  
2.23049218       1.90173923E-02  
2.23171864       1.71037868E-02  
2.23294509       1.53282195E-02  
2.23417154       1.36699633E-02  
2.23539800       1.20982477E-02  
2.23662445       1.06764344E-02  
2.23785090       9.35257721E-03  
2.23907735       8.13332877E-03  
2.24030381       7.03723526E-03  
2.24153026       6.04504555E-03  
2.24275671       5.18395500E-03  
2.24398317       4.43069680E-03  
2.24520962       3.76369653E-03  
2.24643607       3.18698031E-03  
2.24766253       2.69735091E-03  
2.24888898       2.28129545E-03  
2.25011543       1.93228950E-03  
2.25134188       1.63415462E-03  
2.25256834       1.38395308E-03  
2.25379479       1.17144596E-03  
2.25502124       9.90626632E-04  
2.25624770       8.39176944E-04  
2.25747415       7.12124590E-04  
2.25870060       6.05192316E-04  
2.25992705       5.13511313E-04  
2.26115351       4.35634230E-04  
2.26237996       3.71106087E-04  
2.26360641       3.17625842E-04  
2.26483287       2.72072182E-04  
2.26605932       2.33341405E-04  
2.26728577       2.00335730E-04  
2.26851222       1.73000892E-04  
2.26973868       1.50176032E-04  
2.27096513       1.30928163E-04  
2.27219158       1.14226664E-04  
2.27341804       9.99648365E-05  
2.27464449       8.80775450E-05  
2.27587094       7.78295731E-05  
2.27709739       6.89915480E-05  
2.27832385       6.14564985E-05  
2.27955030       5.46849850E-05  
2.28077675       4.89399713E-05  
2.28200321       4.40781418E-05  
2.28322966       3.97253903E-05  
2.28445611       3.57602516E-05  
2.28568257       3.24392033E-05  
2.28690902       2.92720777E-05  
2.28813547       2.65881203E-05  
2.28936192       2.41729719E-05  
2.29058838       2.18671869E-05  
2.29181483       1.98957382E-05  
2.29304128       1.80665827E-05  
2.29426774       1.64931767E-05  
2.29549419       1.51048167E-05  
2.29672064       1.38558038E-05  
2.29794709       1.27430737E-05  
2.29917355       1.16850615E-05  
2.30040000       1.06906421E-05  
