# F200W filter 
# Wavelength [microns]  |  Transmission efficiency
1.68840000       4.12750297E-06  
1.68962645       4.56831901E-06  
1.69085291       5.06665246E-06  
1.69207936       5.65012784E-06  
1.69330581       6.32355676E-06  
1.69453226       7.13241249E-06  
1.69575872       8.04891632E-06  
1.69698517       9.16235621E-06  
1.69821162       1.04465900E-05  
1.69943808       1.19757354E-05  
1.70066453       1.38281556E-05  
1.70189098       1.59680195E-05  
1.70311743       1.85307024E-05  
1.70434389       2.15414128E-05  
1.70557034       2.50933695E-05  
1.70679679       2.92904879E-05  
1.70802325       3.41867883E-05  
1.70924970       3.98727930E-05  
1.71047615       4.66385457E-05  
1.71170261       5.44368028E-05  
1.71292906       6.35107617E-05  
1.71415551       7.40797507E-05  
1.71538196       8.63568816E-05  
1.71660842       1.01465609E-04  
1.71783487       1.18897160E-04  
1.71906132       1.39331858E-04  
1.72028778       1.63654268E-04  
1.72151423       1.93155740E-04  
1.72274068       2.29638041E-04  
1.72396713       2.73481990E-04  
1.72519359       3.26298820E-04  
1.72642004       3.91898448E-04  
1.72764649       4.75251916E-04  
1.72887295       5.79658013E-04  
1.73009940       7.08403684E-04  
1.73132585       8.63583143E-04  
1.73255230       1.05832040E-03  
1.73377876       1.28076161E-03  
1.73500521       1.51568017E-03  
1.73623166       1.75876517E-03  
1.73745812       2.00726401E-03  
1.73868457       2.28843771E-03  
1.73991102       2.59495064E-03  
1.74113747       2.95372288E-03  
1.74236393       3.37766538E-03  
1.74359038       3.88463188E-03  
1.74481683       4.47825042E-03  
1.74604329       5.18692558E-03  
1.74726974       6.03939243E-03  
1.74849619       7.07939112E-03  
1.74972265       8.29085699E-03  
1.75094910       9.65288514E-03  
1.75217555       1.11279302E-02  
1.75340200       1.26684235E-02  
1.75462846       1.42424518E-02  
1.75585491       1.57685295E-02  
1.75708136       1.72005065E-02  
1.75830782       1.85174961E-02  
1.75953427       1.96973665E-02  
1.76076072       2.07726217E-02  
1.76198717       2.17849346E-02  
1.76321363       2.27434168E-02  
1.76444008       2.36614531E-02  
1.76566653       2.45667739E-02  
1.76689299       2.54510258E-02  
1.76811944       2.62663709E-02  
1.76934589       2.70124323E-02  
1.77057234       2.77053106E-02  
1.77179880       2.83281921E-02  
1.77302525       2.88666455E-02  
1.77425170       2.93061223E-02  
1.77547816       2.96777739E-02  
1.77670461       3.00051390E-02  
1.77793106       3.03016448E-02  
1.77915752       3.05794829E-02  
1.78038397       3.08556589E-02  
1.78161042       3.11068222E-02  
1.78283687       3.13738105E-02  
1.78406333       3.16589091E-02  
1.78528978       3.19651059E-02  
1.78651623       3.22596884E-02  
1.78774269       3.25711032E-02  
1.78896914       3.29057420E-02  
1.79019559       3.32250582E-02  
1.79142204       3.35234239E-02  
1.79264850       3.37911743E-02  
1.79387495       3.40097121E-02  
1.79510140       3.42212263E-02  
1.79632786       3.44266039E-02  
1.79755431       3.46331489E-02  
1.79878076       3.48073167E-02  
1.80000721       3.49599464E-02  
1.80123367       3.51340840E-02  
1.80246012       3.53134387E-02  
1.80368657       3.54998185E-02  
1.80491303       3.56919140E-02  
1.80613948       3.59348474E-02  
1.80736593       3.62646046E-02  
1.80859238       3.65432457E-02  
1.80981884       3.68228985E-02  
1.81104529       3.71355888E-02  
1.81227174       3.75400553E-02  
1.81349820       3.79519605E-02  
1.81472465       3.83663074E-02  
1.81595110       3.87992200E-02  
1.81717756       3.92518029E-02  
1.81840401       3.97114422E-02  
1.81963046       4.01565779E-02  
1.82085691       4.06054377E-02  
1.82208337       4.11297574E-02  
1.82330982       4.15929521E-02  
1.82453627       4.20481034E-02  
1.82576273       4.25245025E-02  
1.82698918       4.30039928E-02  
1.82821563       4.34514713E-02  
1.82944208       4.38904862E-02  
1.83066854       4.43735049E-02  
1.83189499       4.48295975E-02  
1.83312144       4.52784847E-02  
1.83434790       4.56947092E-02  
1.83557435       4.60799953E-02  
1.83680080       4.65244316E-02  
1.83802725       4.69339429E-02  
1.83925371       4.73192280E-02  
1.84048016       4.77368638E-02  
1.84170661       4.80807618E-02  
1.84293307       4.84512393E-02  
1.84415952       4.87955503E-02  
1.84538597       4.91362135E-02  
1.84661242       4.94350375E-02  
1.84783888       4.97182501E-02  
1.84906533       5.00801014E-02  
1.85029178       5.03994707E-02  
1.85151824       5.06757751E-02  
1.85274469       5.09856449E-02  
1.85397114       5.12724625E-02  
1.85519760       5.16060813E-02  
1.85642405       5.19007849E-02  
1.85765050       5.22671734E-02  
1.85887695       5.25658450E-02  
1.86010341       5.28559865E-02  
1.86132986       5.31426033E-02  
1.86255631       5.34251734E-02  
1.86378277       5.37644903E-02  
1.86500922       5.41161809E-02  
1.86623567       5.44695834E-02  
1.86746212       5.48234407E-02  
1.86868858       5.52348346E-02  
1.86991503       5.56533610E-02  
1.87114148       5.61145156E-02  
1.87236794       5.65606909E-02  
1.87359439       5.70843410E-02  
1.87482084       5.75621924E-02  
1.87604729       5.79768092E-02  
1.87727375       5.83538880E-02  
1.87850020       5.87686983E-02  
1.87972665       5.91814491E-02  
1.88095311       5.96243514E-02  
1.88217956       6.00628715E-02  
1.88340601       6.05368875E-02  
1.88463246       6.09549179E-02  
1.88585892       6.13328912E-02  
1.88708537       6.17463820E-02  
1.88831182       6.21348587E-02  
1.88953828       6.24793445E-02  
1.89076473       6.27794195E-02  
1.89199118       6.31397366E-02  
1.89321764       6.34572234E-02  
1.89444409       6.38091960E-02  
1.89567054       6.41687131E-02  
1.89689699       6.44776773E-02  
1.89812345       6.47405013E-02  
1.89934990       6.50553116E-02  
1.90057635       6.53183514E-02  
1.90180281       6.55921144E-02  
1.90302926       6.59390494E-02  
1.90425571       6.62279947E-02  
1.90548216       6.65016651E-02  
1.90670862       6.68464762E-02  
1.90793507       6.72014112E-02  
1.90916152       6.74320805E-02  
1.91038798       6.76302845E-02  
1.91161443       6.79429474E-02  
1.91284088       6.82579026E-02  
1.91406733       6.84671509E-02  
1.91529379       6.86374020E-02  
1.91652024       6.87714215E-02  
1.91774669       6.89748875E-02  
1.91897315       6.91336514E-02  
1.92019960       6.92494671E-02  
1.92142605       6.93440631E-02  
1.92265251       6.94631811E-02  
1.92387896       6.95817180E-02  
1.92510541       6.96021781E-02  
1.92633186       6.96581297E-02  
1.92755832       6.98277357E-02  
1.92878477       6.99270713E-02  
1.93001122       6.99753069E-02  
1.93123768       6.99856782E-02  
1.93246413       7.00495234E-02  
1.93369058       7.00789338E-02  
1.93491703       7.00954015E-02  
1.93614349       7.01223056E-02  
1.93736994       7.01215426E-02  
1.93859639       7.01591927E-02  
1.93982285       7.02357439E-02  
1.94104930       7.03488725E-02  
1.94227575       7.05132055E-02  
1.94350220       7.06530951E-02  
1.94472866       7.07974015E-02  
1.94595511       7.10261426E-02  
1.94718156       7.11653443E-02  
1.94840802       7.13082094E-02  
1.94963447       7.13657531E-02  
1.95086092       7.14752447E-02  
1.95208737       7.15817346E-02  
1.95331383       7.16738590E-02  
1.95454028       7.17319924E-02  
1.95576673       7.18198657E-02  
1.95699319       7.18811431E-02  
1.95821964       7.17752050E-02  
1.95944609       7.14653180E-02  
1.96067255       7.14176148E-02  
1.96189900       7.17580853E-02  
1.96312545       7.21241652E-02  
1.96435190       7.22744999E-02  
1.96557836       7.23129606E-02  
1.96680481       7.22919237E-02  
1.96803126       7.23752384E-02  
1.96925772       7.24737646E-02  
1.97048417       7.23997532E-02  
1.97171062       7.23822425E-02  
1.97293707       7.23722416E-02  
1.97416353       7.22943775E-02  
1.97538998       7.22760962E-02  
1.97661643       7.23189861E-02  
1.97784289       7.23224194E-02  
1.97906934       7.23642894E-02  
1.98029579       7.24166182E-02  
1.98152224       7.25417368E-02  
1.98274870       7.25202779E-02  
1.98397515       7.25309845E-02  
1.98520160       7.25635654E-02  
1.98642806       7.25681758E-02  
1.98765451       7.26273482E-02  
1.98888096       7.27320754E-02  
1.99010741       7.27577896E-02  
1.99133387       7.28130067E-02  
1.99256032       7.28549361E-02  
1.99378677       7.29063600E-02  
1.99501323       7.27744873E-02  
1.99623968       7.25377290E-02  
1.99746613       7.25139793E-02  
1.99869259       7.26467358E-02  
1.99991904       7.27624834E-02  
2.00114549       7.28106562E-02  
2.00237194       7.28282222E-02  
2.00359840       7.29219296E-02  
2.00482485       7.28857340E-02  
2.00605130       7.27815428E-02  
2.00727776       7.26960088E-02  
2.00850421       7.26174348E-02  
2.00973066       7.26577792E-02  
2.01095711       7.26262904E-02  
2.01218357       7.25891929E-02  
2.01341002       7.25887634E-02  
2.01463647       7.26285974E-02  
2.01586293       7.27377707E-02  
2.01708938       7.28022913E-02  
2.01831583       7.28587764E-02  
2.01954228       7.28047207E-02  
2.02076874       7.28129017E-02  
2.02199519       7.28360475E-02  
2.02322164       7.30106094E-02  
2.02444810       7.32195953E-02  
2.02567455       7.33831632E-02  
2.02690100       7.34983985E-02  
2.02812745       7.35193667E-02  
2.02935391       7.35967507E-02  
2.03058036       7.36482856E-02  
2.03180681       7.36680342E-02  
2.03303327       7.37112480E-02  
2.03425972       7.37003127E-02  
2.03548617       7.36485217E-02  
2.03671263       7.36429560E-02  
2.03793908       7.36432184E-02  
2.03916553       7.37609585E-02  
2.04039198       7.37055050E-02  
2.04161844       7.35224874E-02  
2.04284489       7.33747631E-02  
2.04407134       7.31582449E-02  
2.04529780       7.29844042E-02  
2.04652425       7.28481277E-02  
2.04775070       7.27185456E-02  
2.04897715       7.25483729E-02  
2.05020361       7.24950773E-02  
2.05143006       7.24511908E-02  
2.05265651       7.24313865E-02  
2.05388297       7.23451404E-02  
2.05510942       7.23165318E-02  
2.05633587       7.22764447E-02  
2.05756232       7.22036179E-02  
2.05878878       7.21799899E-02  
2.06001523       7.22365989E-02  
2.06124168       7.24088822E-02  
2.06246814       7.24690101E-02  
2.06369459       7.25668176E-02  
2.06492104       7.26797347E-02  
2.06614749       7.27539146E-02  
2.06737395       7.29116022E-02  
2.06860040       7.30740069E-02  
2.06982685       7.31757028E-02  
2.07105331       7.33462519E-02  
2.07227976       7.35485357E-02  
2.07350621       7.36763885E-02  
2.07473267       7.37930366E-02  
2.07595912       7.38505719E-02  
2.07718557       7.38403253E-02  
2.07841202       7.37933896E-02  
2.07963848       7.38401674E-02  
2.08086493       7.38953818E-02  
2.08209138       7.38643808E-02  
2.08331784       7.38866144E-02  
2.08454429       7.39373465E-02  
2.08577074       7.38743116E-02  
2.08699719       7.37331824E-02  
2.08822365       7.35999831E-02  
2.08945010       7.34547294E-02  
2.09067655       7.33626138E-02  
2.09190301       7.31510533E-02  
2.09312946       7.30148537E-02  
2.09435591       7.30900718E-02  
2.09558236       7.30382854E-02  
2.09680882       7.28985318E-02  
2.09803527       7.27094672E-02  
2.09926172       7.25916988E-02  
2.10048818       7.24808749E-02  
2.10171463       7.23794165E-02  
2.10294108       7.22306419E-02  
2.10416754       7.21881343E-02  
2.10539399       7.21815813E-02  
2.10662044       7.19878218E-02  
2.10784689       7.18871962E-02  
2.10907335       7.17572550E-02  
2.11029980       7.16415145E-02  
2.11152625       7.14922631E-02  
2.11275271       7.14411217E-02  
2.11397916       7.12996082E-02  
2.11520561       7.11342043E-02  
2.11643206       7.10831402E-02  
2.11765852       7.10791134E-02  
2.11888497       7.10047700E-02  
2.12011142       7.08605309E-02  
2.12133788       7.08079371E-02  
2.12256433       7.07696782E-02  
2.12379078       7.06668005E-02  
2.12501723       7.05569461E-02  
2.12624369       7.04876803E-02  
2.12747014       7.04667452E-02  
2.12869659       7.03033797E-02  
2.12992305       7.02510043E-02  
2.13114950       7.02003405E-02  
2.13237595       7.01883543E-02  
2.13360240       7.01732332E-02  
2.13482886       7.01928922E-02  
2.13605531       7.00924768E-02  
2.13728176       7.00756959E-02  
2.13850822       7.00776597E-02  
2.13973467       7.01778684E-02  
2.14096112       7.02084115E-02  
2.14218758       7.01918381E-02  
2.14341403       7.01907891E-02  
2.14464048       7.02870350E-02  
2.14586693       7.03335982E-02  
2.14709339       7.02541303E-02  
2.14831984       7.02771012E-02  
2.14954629       7.03763737E-02  
2.15077275       7.02847373E-02  
2.15199920       7.01435465E-02  
2.15322565       7.00257129E-02  
2.15445210       6.98426969E-02  
2.15567856       6.95917563E-02  
2.15690501       6.94148474E-02  
2.15813146       6.91879598E-02  
2.15935792       6.88860229E-02  
2.16058437       6.85517137E-02  
2.16181082       6.82098547E-02  
2.16303727       6.78215191E-02  
2.16426373       6.75708226E-02  
2.16549018       6.72615023E-02  
2.16671663       6.69645504E-02  
2.16794309       6.66759036E-02  
2.16916954       6.64295757E-02  
2.17039599       6.62256008E-02  
2.17162244       6.60654911E-02  
2.17284890       6.60172737E-02  
2.17407535       6.60264935E-02  
2.17530180       6.60648920E-02  
2.17652826       6.62370533E-02  
2.17775471       6.65496457E-02  
2.17898116       6.68522295E-02  
2.18020762       6.71495751E-02  
2.18143407       6.74663576E-02  
2.18266052       6.78646023E-02  
2.18388697       6.83406183E-02  
2.18511343       6.87151099E-02  
2.18633988       6.89694727E-02  
2.18756633       6.89696976E-02  
2.18879279       6.88833195E-02  
2.19001924       6.86282870E-02  
2.19124569       6.82160611E-02  
2.19247214       6.76552979E-02  
2.19369860       6.70104756E-02  
2.19492505       6.63195116E-02  
2.19615150       6.55866386E-02  
2.19737796       6.49451198E-02  
2.19860441       6.43073926E-02  
2.19983086       6.36731354E-02  
2.20105731       6.31058615E-02  
2.20228377       6.27568820E-02  
2.20351022       6.25030308E-02  
2.20473667       6.23843458E-02  
2.20596313       6.23284983E-02  
2.20718958       6.23682897E-02  
2.20841603       6.24401487E-02  
2.20964248       6.24231923E-02  
2.21086894       6.22312549E-02  
2.21209539       6.18306159E-02  
2.21332184       6.11231411E-02  
2.21454830       5.99928875E-02  
2.21577475       5.84981674E-02  
2.21700120       5.65610138E-02  
2.21822766       5.42397843E-02  
2.21945411       5.15714731E-02  
2.22068056       4.85709164E-02  
2.22190701       4.52999731E-02  
2.22313347       4.19241464E-02  
2.22435992       3.83841872E-02  
2.22558637       3.48984301E-02  
2.22681283       3.15798040E-02  
2.22803928       2.84742882E-02  
2.22926573       2.56036972E-02  
2.23049218       2.30227663E-02  
2.23171864       2.07061242E-02  
2.23294509       1.85565933E-02  
2.23417154       1.65490813E-02  
2.23539800       1.46463366E-02  
2.23662445       1.29250662E-02  
2.23785090       1.13223830E-02  
2.23907735       9.84634090E-03  
2.24030381       8.51939216E-03  
2.24153026       7.31823107E-03  
2.24275671       6.27578075E-03  
2.24398317       5.36387404E-03  
2.24520962       4.55639261E-03  
2.24643607       3.85821051E-03  
2.24766253       3.26545715E-03  
2.24888898       2.76177360E-03  
2.25011543       2.33926129E-03  
2.25134188       1.97833432E-03  
2.25256834       1.67543625E-03  
2.25379479       1.41817164E-03  
2.25502124       1.19926881E-03  
2.25624770       1.01592134E-03  
2.25747415       8.62109682E-04  
2.25870060       7.32655721E-04  
2.25992705       6.21665199E-04  
2.26115351       5.27385928E-04  
2.26237996       4.49267101E-04  
2.26360641       3.84523042E-04  
2.26483287       3.29375035E-04  
2.26605932       2.82486923E-04  
2.26728577       2.42529712E-04  
2.26851222       2.09437710E-04  
2.26973868       1.81805561E-04  
2.27096513       1.58503776E-04  
2.27219158       1.38284669E-04  
2.27341804       1.21019067E-04  
2.27464449       1.06628117E-04  
2.27587094       9.42217548E-05  
2.27709739       8.35222970E-05  
2.27832385       7.44002427E-05  
2.27955030       6.62025377E-05  
2.28077675       5.92475301E-05  
2.28200321       5.33617197E-05  
2.28322966       4.80922076E-05  
2.28445611       4.32919457E-05  
2.28568257       3.92714304E-05  
2.28690902       3.54372563E-05  
2.28813547       3.21880135E-05  
2.28936192       2.92641954E-05  
2.29058838       2.64727743E-05  
2.29181483       2.40861062E-05  
2.29304128       2.18717006E-05  
2.29426774       1.99669096E-05  
2.29549419       1.82861383E-05  
2.29672064       1.67740629E-05  
2.29794709       1.54269736E-05  
2.29917355       1.41461267E-05  
2.30040000       1.29422662E-05  
