# F430M filter 
# Wavelength [microns]  |  Transmission efficiency
2.00046639       1.84192283E-10  
2.00261051       1.61100717E-10  
2.00475463       1.39984873E-10  
2.00689875       1.23286395E-10  
2.00904288       1.10471427E-10  
2.01118700       1.01741018E-10  
2.01333112       9.52524868E-11  
2.01547525       9.03532379E-11  
2.01761937       8.54902470E-11  
2.01976349       8.05090282E-11  
2.02190761       7.59180897E-11  
2.02405174       7.03608088E-11  
2.02619586       6.64561331E-11  
2.02833998       6.31359722E-11  
2.03048410       6.04952278E-11  
2.03262822       5.87952243E-11  
2.03477235       5.67828471E-11  
2.03691647       5.54906188E-11  
2.03906059       5.47553835E-11  
2.04120472       5.51811812E-11  
2.04334884       5.54403420E-11  
2.04549296       5.58519295E-11  
2.04763708       5.65348333E-11  
2.04978121       5.84368543E-11  
2.05192533       6.03613824E-11  
2.05406945       6.34313460E-11  
2.05621357       6.68035961E-11  
2.05835770       7.12167463E-11  
2.06050182       7.60278878E-11  
2.06264594       8.16255858E-11  
2.06479006       8.83723445E-11  
2.06693419       9.64481186E-11  
2.06907831       1.06010391E-10  
2.07122243       1.17326816E-10  
2.07336656       1.31613707E-10  
2.07551068       1.49653731E-10  
2.07765480       1.70940444E-10  
2.07979892       1.99498985E-10  
2.08194305       2.33475010E-10  
2.08408717       2.78334666E-10  
2.08623129       3.35246775E-10  
2.08837541       4.02761270E-10  
2.09051954       4.67224008E-10  
2.09266366       5.46250103E-10  
2.09480778       6.04136772E-10  
2.09695190       6.63145891E-10  
2.09909603       7.07793427E-10  
2.10124015       7.41439624E-10  
2.10338427       7.59938085E-10  
2.10552839       7.25902096E-10  
2.10767252       6.82118538E-10  
2.10981664       6.06023991E-10  
2.11196076       5.20907069E-10  
2.11410488       4.16268204E-10  
2.11624901       3.16370726E-10  
2.11839313       2.40624920E-10  
2.12053725       2.05360900E-10  
2.12268137       1.78225476E-10  
2.12482550       1.52793074E-10  
2.12696962       1.33194815E-10  
2.12911374       1.08665083E-10  
2.13125787       9.10903528E-11  
2.13340199       8.41063429E-11  
2.13554611       7.96208180E-11  
2.13769023       8.45170508E-11  
2.13983436       6.79389512E-11  
2.14197848       5.60358947E-11  
2.14412260       4.82367333E-11  
2.14626672       4.74313064E-11  
2.14841085       5.47241676E-11  
2.15055497       4.68883631E-11  
2.15269909       4.52098822E-11  
2.15484321       5.48594195E-11  
2.15698734       6.49160979E-11  
2.15913146       9.56602472E-11  
2.16127558       9.86525491E-11  
2.16341970       1.02842178E-10  
2.16556383       9.78391942E-11  
2.16770795       1.03560498E-10  
2.16985207       9.97709637E-11  
2.17199619       7.70545391E-11  
2.17414032       6.53697743E-11  
2.17628444       2.69350092E-11  
2.17842856       2.86291488E-11  
2.18057269       2.27523747E-11  
2.18271681       2.31354532E-11  
2.18486093       4.58493143E-11  
2.18700505       2.55017751E-11  
2.18914917       1.66720394E-11  
2.19129330       6.81963236E-12  
2.19343742       8.67530856E-12  
2.19558154       3.70953933E-11  
2.19772567       1.27875295E-11  
2.19986979       9.75360263E-12  
2.20201391       2.91110528E-11  
2.20415803       6.14979278E-11  
2.20630216       1.49106222E-10  
2.20844628       1.76799472E-10  
2.21059040       2.23335741E-10  
2.21273452       2.10541760E-10  
2.21487865       1.74687172E-10  
2.21702277       1.94917267E-10  
2.21916689       1.41163132E-10  
2.22131101       1.37672304E-10  
2.22345514       1.66400199E-10  
2.22559926       1.86531578E-10  
2.22774338       2.79473220E-10  
2.22988751       3.68350194E-10  
2.23203163       5.25028173E-10  
2.23417575       4.84628456E-10  
2.23631987       2.26560229E-10  
2.23846400       1.27006750E-10  
2.24060812       3.19275847E-11  
2.24275224       3.72049119E-11  
2.24489636       8.82222171E-11  
2.24704048       2.17022586E-11  
2.24918461       1.07850566E-11  
2.25132873       2.07109427E-11  
2.25347285       1.70809235E-10  
2.25561698       1.68170171E-09  
2.25776110       2.15989977E-09  
2.25990522       4.24276877E-09  
2.26204934       6.73105180E-09  
2.26419347       5.77571005E-09  
2.26633759       5.54008065E-09  
2.26848171       4.89025491E-09  
2.27062583       5.75850793E-09  
2.27276996       7.62033957E-09  
2.27491408       7.16801575E-09  
2.27705820       1.31065822E-08  
2.27920232       2.15645888E-08  
2.28134645       2.61586850E-08  
2.28349057       3.13261468E-08  
2.28563469       1.90848389E-08  
2.28777882       1.61518323E-08  
2.28992294       7.08403899E-09  
2.29206706       2.64596708E-09  
2.29421118       1.99324696E-09  
2.29635531       3.77783041E-09  
2.29849943       8.64142362E-09  
2.30064355       1.86994240E-08  
2.30278767       2.15005088E-08  
2.30493180       2.78311449E-08  
2.30707592       2.42446564E-08  
2.30922004       2.55051131E-08  
2.31136416       4.81776357E-08  
2.31350829       2.33912480E-08  
2.31565241       1.37001820E-08  
2.31779653       9.30253252E-09  
2.31994065       1.56064990E-08  
2.32208478       1.03462945E-07  
2.32422890       3.23194416E-07  
2.32637302       3.83910596E-07  
2.32851714       4.77461968E-07  
2.33066127       3.41875386E-07  
2.33280539       3.54612639E-07  
2.33494951       3.78209348E-07  
2.33709364       2.84174255E-07  
2.33923776       2.86707387E-07  
2.34138188       3.31503516E-07  
2.34352600       3.88427139E-07  
2.34567013       5.03017755E-07  
2.34781425       1.30938472E-07  
2.34995837       1.47491617E-08  
2.35210249       3.24458828E-09  
2.35424662       3.80851762E-09  
2.35639074       6.19832018E-09  
2.35853486       1.33764358E-08  
2.36067898       5.28479482E-08  
2.36282311       3.58803269E-07  
2.36496723       1.31254877E-06  
2.36711135       1.25902217E-06  
2.36925547       1.23817122E-06  
2.37139960       9.79404505E-07  
2.37354372       9.26805302E-07  
2.37568784       9.94374288E-07  
2.37783196       1.57303270E-07  
2.37997609       3.16977523E-08  
2.38212021       5.82022570E-08  
2.38426433       2.56576779E-08  
2.38640845       8.81367978E-08  
2.38855258       4.20475805E-07  
2.39069670       6.91668369E-07  
2.39284082       1.29208681E-06  
2.39498495       1.33642185E-06  
2.39712907       9.19347971E-07  
2.39927319       7.64450580E-07  
2.40141731       4.45793045E-07  
2.40356143       3.33482607E-07  
2.40570556       6.23908141E-07  
2.40784968       8.23476164E-07  
2.40999380       1.02357411E-06  
2.41213793       1.60820068E-06  
2.41428205       1.74831531E-06  
2.41642617       1.88621123E-06  
2.41857029       2.26715210E-06  
2.42071442       1.52971095E-06  
2.42285854       1.16088189E-06  
2.42500266       1.32249914E-06  
2.42714678       1.12154184E-06  
2.42929091       1.12306670E-06  
2.43143503       1.33336836E-06  
2.43357915       1.37558490E-06  
2.43572327       1.55720813E-06  
2.43786740       1.06079340E-06  
2.44001152       5.32042133E-07  
2.44215564       3.56306920E-07  
2.44429977       3.86709702E-07  
2.44644389       6.18308142E-07  
2.44858801       1.31211347E-06  
2.45073213       1.34535847E-06  
2.45287626       1.30638884E-06  
2.45502038       1.50270726E-06  
2.45716450       1.49493972E-06  
2.45930862       1.51449241E-06  
2.46145274       2.27109459E-06  
2.46359687       2.28377909E-06  
2.46574099       1.94638677E-06  
2.46788511       1.82047378E-06  
2.47002924       1.24884511E-06  
2.47217336       1.03828808E-06  
2.47431748       1.21602204E-06  
2.47646160       1.09477219E-06  
2.47860573       1.23538282E-06  
2.48074985       1.82860567E-06  
2.48289397       1.63766679E-06  
2.48503809       1.46867109E-06  
2.48718222       1.41634464E-06  
2.48932634       1.47972599E-06  
2.49147046       2.06524943E-06  
2.49361458       3.20833172E-06  
2.49575871       2.19889068E-06  
2.49790283       1.53652077E-06  
2.50004695       6.65830753E-07  
2.50219108       1.64024027E-06  
2.50383186       2.61683236E-06  
2.50518309       4.20867037E-06  
2.50653432       1.65071308E-06  
2.50788555       1.11695821E-06  
2.50923678       1.89077170E-06  
2.51058801       1.74605330E-06  
2.51193924       1.18010689E-06  
2.51329048       9.25072603E-07  
2.51464171       1.98524544E-06  
2.51599294       2.70599848E-07  
2.51734417       2.61958510E-06  
2.51869540       2.13513722E-06  
2.52004663       2.15494059E-06  
2.52139786       3.54927979E-08  
2.52274910       1.03920672E-06  
2.52410033       1.43976537E-06  
2.52545156       9.97267274E-07  
2.52680279       5.88941994E-07  
2.52815402       7.51228391E-07  
2.52950525       1.12810055E-06  
2.53085648       1.30376782E-06  
2.53220772       9.92007062E-07  
2.53355895       2.36313209E-06  
2.53491018       3.27773490E-06  
2.53626141       2.57857731E-06  
2.53761264       1.63372580E-06  
2.53896387       3.83486500E-07  
2.54031511       1.30003521E-06  
2.54166634       8.49855704E-08  
2.54301757       1.73027565E-06  
2.54436880       2.08095530E-06  
2.54572003       2.77667609E-06  
2.54707126       3.04224627E-06  
2.54842249       1.73794535E-06  
2.54977373       1.05573718E-06  
2.55112496       7.03404314E-07  
2.55247619       9.87655882E-07  
2.55382742       1.77761085E-06  
2.55517865       2.26972426E-06  
2.55652988       2.97030929E-06  
2.55788111       2.35603292E-06  
2.55923234       1.79768279E-06  
2.56058358       3.62220697E-06  
2.56193481       4.84254315E-06  
2.56328604       2.72992801E-06  
2.56463727       3.30393964E-06  
2.56598850       4.83154330E-06  
2.56733973       3.09130462E-06  
2.56869096       1.93916330E-06  
2.57004220       3.24897508E-06  
2.57139343       1.89437000E-06  
2.57274466       3.49673580E-06  
2.57409589       4.36057617E-06  
2.57544712       2.77245130E-06  
2.57679835       2.63128953E-06  
2.57814959       3.43943470E-06  
2.57950082       3.12152130E-06  
2.58085205       1.51078097E-06  
2.58220328       2.25171347E-06  
2.58355451       1.55009899E-06  
2.58490574       2.73073355E-06  
2.58625697       3.28422636E-06  
2.58760820       3.34243430E-06  
2.58895944       2.64434573E-06  
2.59031067       3.84617429E-06  
2.59166190       3.85039735E-06  
2.59301313       4.93729708E-06  
2.59436436       3.96941190E-06  
2.59571559       1.13013970E-06  
2.59706682       4.79059935E-07  
2.59841806       3.37541516E-06  
2.59976929       3.53328740E-06  
2.60112052       2.34143253E-06  
2.60247175       2.66876082E-06  
2.60382298       6.37514723E-06  
2.60517421       5.62406369E-06  
2.60652545       1.62860886E-06  
2.60787668       3.28212951E-06  
2.60922791       2.65873711E-06  
2.61057914       1.35728896E-06  
2.61193037       2.61369611E-06  
2.61328160       3.66476243E-06  
2.61463283       4.04076368E-06  
2.61598407       4.35606966E-06  
2.61733530       3.54098017E-06  
2.61868653       2.46899155E-06  
2.62003776       2.20466950E-06  
2.62138899       5.57855959E-06  
2.62274022       6.92278181E-06  
2.62409145       4.26208213E-06  
2.62544268       4.59591218E-06  
2.62679392       3.25162315E-06  
2.62814515       2.28688596E-06  
2.62949638       3.91361562E-06  
2.63084761       3.53797984E-06  
2.63219884       4.46950360E-06  
2.63355007       2.32723849E-06  
2.63490131       1.84531486E-06  
2.63625254       5.89677215E-06  
2.63760377       2.89883684E-06  
2.63895500       4.10494438E-06  
2.64030623       3.57463943E-06  
2.64165746       6.12775641E-06  
2.64300869       5.78554475E-06  
2.64435993       4.12468771E-06  
2.64571116       3.24998337E-06  
2.64706239       3.23814746E-06  
2.64841362       1.34551241E-06  
2.64976485       9.48759879E-07  
2.65111608       9.71530526E-07  
2.65246731       2.08289523E-06  
2.65381855       3.32774356E-06  
2.65516978       3.86272794E-06  
2.65652101       5.33538771E-06  
2.65787224       2.75984615E-06  
2.65922347       3.52590045E-06  
2.66057470       4.87938851E-06  
2.66192593       4.94648715E-06  
2.66327717       3.12090609E-06  
2.66462840       1.55119144E-06  
2.66597963       2.77169646E-06  
2.66733086       1.64841580E-06  
2.66868209       4.72104036E-06  
2.67003332       4.27705559E-06  
2.67138455       2.58670199E-06  
2.67273579       3.04266189E-06  
2.67408702       3.53939262E-06  
2.67543825       3.69968015E-06  
2.67678948       1.64535088E-06  
2.67814071       3.67790082E-06  
2.67949194       3.59592353E-06  
2.68084317       2.31692450E-06  
2.68219441       2.04281025E-06  
2.68354564       4.50632032E-07  
2.68489687       2.57099968E-06  
2.68624810       6.76157069E-07  
2.68759933       1.03916060E-06  
2.68895056       1.48228696E-06  
2.69030179       2.96822697E-06  
2.69165303       3.93547516E-06  
2.69300426       2.26675765E-06  
2.69435549       7.88832475E-07  
2.69570672       1.55292677E-06  
2.69705795       2.45281205E-06  
2.69840918       1.82527509E-06  
2.69976041       2.00204901E-06  
2.70111165       1.65688796E-06  
2.70246288       9.85396048E-07  
2.70381411       3.49655113E-06  
2.70516534       1.77508702E-06  
2.70651657       1.61578172E-06  
2.70786780       4.50071723E-06  
2.70921904       2.03994774E-06  
2.71057027       3.02654427E-06  
2.71192150       1.64199209E-06  
2.71327273       2.32011007E-06  
2.71462396       3.51383788E-06  
2.71597519       2.31317659E-06  
2.71732642       3.97209886E-06  
2.71867766       2.06391060E-06  
2.72002889       3.59278351E-06  
2.72138012       3.40319844E-06  
2.72273135       3.12681849E-06  
2.72408258       3.36501947E-06  
2.72543381       3.21865483E-06  
2.72678504       2.14534799E-06  
2.72813627       2.44098651E-06  
2.72948751       4.09726338E-06  
2.73083874       1.81830359E-06  
2.73218997       1.75945638E-06  
2.73354120       2.16157661E-06  
2.73489243       1.79283644E-06  
2.73624366       1.97078784E-06  
2.73759489       2.65374528E-06  
2.73894613       5.73510500E-07  
2.74029736       1.16142833E-06  
2.74164859       1.31846274E-06  
2.74299982       1.43426456E-06  
2.74435105       7.94639102E-07  
2.74570228       1.12471561E-06  
2.74705352       1.58645205E-06  
2.74840475       1.80019041E-06  
2.74975598       1.76484728E-06  
2.75110721       7.15859887E-07  
2.75245844       7.00810802E-07  
2.75380967       1.06183123E-06  
2.75516090       1.83846657E-06  
2.75651213       5.24416506E-08  
2.75786337       2.44222545E-07  
2.75921460       1.54777993E-06  
2.76056583       7.90669826E-07  
2.76191706       2.15614227E-06  
2.76326829       7.79624222E-07  
2.76461952       4.77640266E-07  
2.76597075       1.60966244E-07  
2.76732199       1.44039502E-06  
2.76867322       3.00702559E-06  
2.77002445       3.31693981E-06  
2.77137568       2.20913564E-06  
2.77272691       1.59395079E-06  
2.77407814       9.80759167E-07  
2.77542938       1.46614357E-06  
2.77678061       8.60698868E-07  
2.77813184       6.79267186E-07  
2.77948307       5.26913474E-07  
2.78083430       1.18019253E-06  
2.78218553       8.57032903E-07  
2.78353676       9.56608506E-07  
2.78488800       3.42589249E-07  
2.78623923       2.19734971E-08  
2.78759046       2.05169971E-07  
2.78894169       9.32033450E-07  
2.79029292       1.32806205E-06  
2.79164415       1.76223784E-06  
2.79299538       9.80040640E-07  
2.79434661       3.50567511E-07  
2.79569785       1.07270861E-06  
2.79704908       3.38367613E-08  
2.79840031       5.00920993E-07  
2.79975154       2.47613738E-08  
2.80110277       4.54997677E-09  
2.80245400       4.55194659E-09  
2.80380524       4.55380712E-09  
2.80515647       4.38069801E-07  
2.80650770       2.48548438E-08  
2.80785893       3.30417098E-07  
2.80921016       2.77525257E-07  
2.81056139       9.84129099E-07  
2.81191262       1.24503734E-06  
2.81326386       2.36006929E-07  
2.81461509       4.59536831E-09  
2.81596632       2.55641933E-08  
2.81731755       8.44415012E-07  
2.81866878       1.01064551E-06  
2.82002001       8.11701681E-07  
2.82137124       8.90099685E-07  
2.82272247       1.67762004E-06  
2.82407371       7.83135772E-07  
2.82542494       1.02526356E-07  
2.82677617       2.91303716E-08  
2.82812740       7.98788840E-07  
2.82947863       9.61325999E-09  
2.83082986       5.13380054E-07  
2.83218109       8.80386242E-08  
2.83353233       3.94741643E-08  
2.83488356       9.80362850E-08  
2.83623479       3.84430157E-07  
2.83758602       2.39583474E-07  
2.83893725       4.87829660E-07  
2.84028848       5.25795298E-07  
2.84163972       2.52148199E-06  
2.84299095       9.85744518E-07  
2.84434218       3.46169816E-07  
2.84569341       9.96591958E-07  
2.84704464       1.31676845E-06  
2.84839587       1.48428528E-06  
2.84974710       1.52899492E-06  
2.85109834       6.87175500E-07  
2.85244957       8.28544577E-07  
2.85380080       1.92480847E-06  
2.85515203       1.25996849E-06  
2.85650326       5.41013852E-07  
2.85785449       4.46706754E-09  
2.85920572       3.43826030E-07  
2.86055696       8.90230199E-07  
2.86190819       2.04774383E-07  
2.86325942       2.07750429E-07  
2.86461065       4.53589241E-08  
2.86596188       2.04925854E-07  
2.86731311       3.64861095E-07  
2.86866434       6.54784683E-07  
2.87001558       2.43559221E-07  
2.87136681       2.70899444E-07  
2.87271804       1.93481080E-08  
2.87406927       6.86012909E-07  
2.87542050       2.08456948E-06  
2.87677173       1.69654324E-06  
2.87812296       1.44125653E-07  
2.87947420       4.42585708E-09  
2.88082543       4.42428455E-09  
2.88217666       4.42268410E-09  
2.88352789       4.42106608E-09  
2.88487912       4.89027507E-09  
2.88623035       3.19949338E-07  
2.88758158       1.34120227E-06  
2.88893282       1.56582150E-06  
2.89028405       5.19190857E-07  
2.89163528       6.26842496E-07  
2.89298651       6.44936513E-09  
2.89433774       4.40999146E-09  
2.89568897       1.25374806E-07  
2.89704020       6.55024046E-09  
2.89839144       6.09524076E-07  
2.89974267       2.63151599E-07  
2.90109390       7.77365832E-08  
2.90244513       1.65991247E-07  
2.90379636       1.09876742E-06  
2.90514759       1.53962499E-06  
2.90649883       1.86299388E-06  
2.90785006       2.49518250E-06  
2.90920129       2.02688688E-07  
2.91055252       8.65547529E-08  
2.91190375       1.25989353E-06  
2.91325498       1.55024226E-06  
2.91460621       6.54068528E-07  
2.91595745       9.17963499E-07  
2.91730868       7.66665506E-07  
2.91865991       1.48456009E-06  
2.92001114       1.09703608E-06  
2.92136237       1.50679358E-08  
2.92271360       4.83889023E-07  
2.92406483       1.54109532E-07  
2.92541606       5.11390600E-07  
2.92676730       4.89841295E-07  
2.92811853       6.21486202E-09  
2.92946976       4.30578795E-09  
2.93082099       4.29838903E-09  
2.93217222       4.29050876E-09  
2.93352345       4.28265264E-09  
2.93487469       4.27483285E-09  
2.93622592       3.68174572E-07  
2.93757715       1.19885060E-06  
2.93892838       1.21305078E-06  
2.94027961       2.03350035E-08  
2.94163084       3.35591557E-07  
2.94298207       1.05828344E-07  
2.94433331       7.20649328E-07  
2.94568454       2.26841432E-08  
2.94703577       1.04999518E-08  
2.94838700       6.36457083E-08  
2.94973823       1.54916852E-07  
2.95108946       6.34944401E-07  
2.95244069       7.95727971E-07  
2.95379192       3.21561496E-08  
2.95514316       5.48635628E-08  
2.95649439       6.32781833E-07  
2.95784562       6.12693393E-07  
2.95919685       4.91450686E-07  
2.96054808       1.33132348E-07  
2.96189931       4.89960847E-07  
2.96325054       6.18407084E-07  
2.96460178       2.19437110E-07  
2.96595301       3.03340322E-07  
2.96730424       9.26932354E-07  
2.96865547       2.31916328E-07  
2.97000670       6.05591363E-09  
2.97135793       2.95183349E-08  
2.97270917       6.66980596E-07  
2.97406040       3.86605128E-07  
2.97541163       1.90030864E-07  
2.97676286       1.48498110E-07  
