# F410M filter 
# Wavelength [microns]  |  Transmission efficiency
2.00046639       2.57732284E-10  
2.00207448       2.33231746E-10  
2.00368257       2.12349034E-10  
2.00529066       1.94577277E-10  
2.00689875       1.79141645E-10  
2.00850685       1.66891645E-10  
2.01011494       1.55870264E-10  
2.01172303       1.45227501E-10  
2.01333112       1.36855823E-10  
2.01493921       1.29901320E-10  
2.01654731       1.22245714E-10  
2.01815540       1.16908150E-10  
2.01976349       1.10956475E-10  
2.02137158       1.06868687E-10  
2.02297967       1.03087965E-10  
2.02458777       9.82786138E-11  
2.02619586       9.50761602E-11  
2.02780395       9.21925678E-11  
2.02941204       8.97434330E-11  
2.03102013       8.77198110E-11  
2.03262822       8.59090254E-11  
2.03423632       8.33086424E-11  
2.03584441       8.21209996E-11  
2.03745250       8.12903646E-11  
2.03906059       8.08515147E-11  
2.04066868       8.14713051E-11  
2.04227678       8.14607297E-11  
2.04388487       8.17605160E-11  
2.04549296       8.25787974E-11  
2.04710105       8.37992015E-11  
2.04870914       8.58488901E-11  
2.05031724       8.79006514E-11  
2.05192533       8.97628533E-11  
2.05353342       9.28643992E-11  
2.05514151       9.55678969E-11  
2.05674960       9.95194622E-11  
2.05835770       1.04223268E-10  
2.05996579       1.10717484E-10  
2.06157388       1.17399742E-10  
2.06318197       1.24433556E-10  
2.06479006       1.32402356E-10  
2.06639816       1.41427752E-10  
2.06800625       1.51908209E-10  
2.06961434       1.63759222E-10  
2.07122243       1.76951035E-10  
2.07283052       1.93256892E-10  
2.07443862       2.10083243E-10  
2.07604671       2.30732529E-10  
2.07765480       2.52589146E-10  
2.07926289       2.78631032E-10  
2.08087098       3.08961272E-10  
2.08247908       3.43254744E-10  
2.08408717       3.85360482E-10  
2.08569526       4.34549550E-10  
2.08730335       4.92214184E-10  
2.08891144       5.61891723E-10  
2.09051954       6.45037471E-10  
2.09212763       7.42943341E-10  
2.09373572       8.60797422E-10  
2.09534381       1.00207583E-09  
2.09695190       1.16162569E-09  
2.09856000       1.35885604E-09  
2.10016809       1.60100704E-09  
2.10177618       1.86434609E-09  
2.10338427       2.17202421E-09  
2.10499236       2.52447707E-09  
2.10660045       2.90226741E-09  
2.10820855       3.31932315E-09  
2.10981664       3.74446052E-09  
2.11142473       4.14809700E-09  
2.11303282       4.47766069E-09  
2.11464091       4.72043639E-09  
2.11624901       4.93091764E-09  
2.11785710       5.02094297E-09  
2.11946519       5.07660756E-09  
2.12107328       5.06508605E-09  
2.12268137       5.00575103E-09  
2.12428947       4.89200138E-09  
2.12589756       4.78191700E-09  
2.12750565       4.66983752E-09  
2.12911374       4.55499733E-09  
2.13072183       4.46170747E-09  
2.13232993       4.35903446E-09  
2.13393802       4.24406452E-09  
2.13554611       4.14137476E-09  
2.13715420       4.05212218E-09  
2.13876229       3.96576312E-09  
2.14037039       3.85506589E-09  
2.14197848       3.74240367E-09  
2.14358657       3.61418690E-09  
2.14519466       3.48631169E-09  
2.14680275       3.35501432E-09  
2.14841085       3.22467203E-09  
2.15001894       3.09481353E-09  
2.15162703       2.95545519E-09  
2.15323512       2.82617079E-09  
2.15484321       2.67330018E-09  
2.15645131       2.53966513E-09  
2.15805940       2.36812550E-09  
2.15966749       2.21461207E-09  
2.16127558       2.06074004E-09  
2.16288367       1.90705947E-09  
2.16449177       1.76660145E-09  
2.16609986       1.63204022E-09  
2.16770795       1.51310007E-09  
2.16931604       1.41478017E-09  
2.17092413       1.32412738E-09  
2.17253222       1.22963112E-09  
2.17414032       1.14294904E-09  
2.17574841       1.05179925E-09  
2.17735650       9.63171825E-10  
2.17896459       8.88669938E-10  
2.18057269       8.31824790E-10  
2.18218078       7.82305657E-10  
2.18378887       7.26695387E-10  
2.18539696       6.80165210E-10  
2.18700505       6.63839662E-10  
2.18861314       6.58288669E-10  
2.19022124       6.27018866E-10  
2.19182933       5.82125530E-10  
2.19343742       5.44597718E-10  
2.19504551       5.34145412E-10  
2.19665360       5.53312633E-10  
2.19826170       6.12357960E-10  
2.19986979       6.89597842E-10  
2.20147788       7.33967238E-10  
2.20308597       7.58507498E-10  
2.20469406       8.67694376E-10  
2.20630216       9.61531735E-10  
2.20791025       1.07983796E-09  
2.20951834       1.11750830E-09  
2.21112643       1.18144129E-09  
2.21273452       1.24137697E-09  
2.21434262       1.30319087E-09  
2.21595071       1.36034133E-09  
2.21755880       1.33919135E-09  
2.21916689       1.41197236E-09  
2.22077498       1.61085429E-09  
2.22238308       1.95068461E-09  
2.22399117       2.43967536E-09  
2.22559926       3.05612380E-09  
2.22720735       3.72977513E-09  
2.22881544       3.84250808E-09  
2.23042353       3.96198450E-09  
2.23203163       3.25520272E-09  
2.23363972       3.14985827E-09  
2.23524781       2.84314027E-09  
2.23685590       2.06536220E-09  
2.23846400       1.56953597E-09  
2.24007209       1.75770108E-09  
2.24168018       2.33830628E-09  
2.24328827       3.53540000E-09  
2.24489636       4.51163800E-09  
2.24650445       5.79289509E-09  
2.24811255       5.33110931E-09  
2.24972064       5.69262036E-09  
2.25132873       4.99983998E-09  
2.25293682       4.56227816E-09  
2.25454491       5.41816463E-09  
2.25615301       8.11350448E-09  
2.25776110       1.23044171E-08  
2.25936919       1.38927848E-08  
2.26097728       1.57744103E-08  
2.26258537       1.46002162E-08  
2.26419347       1.20042539E-08  
2.26580156       1.22763085E-08  
2.26740965       8.47015584E-09  
2.26901774       9.09854230E-09  
2.27062583       1.31315635E-08  
2.27223393       1.57085672E-08  
2.27384202       1.95540272E-08  
2.27545011       1.80501846E-08  
2.27705820       1.84986385E-08  
2.27866629       2.61088520E-08  
2.28027439       2.89150272E-08  
2.28188248       4.23883575E-08  
2.28349057       4.95399673E-08  
2.28509866       5.80753474E-08  
2.28670675       6.15669421E-08  
2.28831484       6.25804811E-08  
2.28992294       6.63730589E-08  
2.29153103       6.18913769E-08  
2.29313912       5.79790210E-08  
2.29474721       4.60649443E-08  
2.29635531       4.26510127E-08  
2.29796340       5.00249134E-08  
2.29957149       4.03568036E-08  
2.30117958       3.90477548E-08  
2.30278767       3.92687838E-08  
2.30439577       4.14215967E-08  
2.30600386       5.56770084E-08  
2.30761195       4.76636186E-08  
2.30922004       3.95295088E-08  
2.31082813       3.58750466E-08  
2.31243622       3.53013699E-08  
2.31404432       4.26335871E-08  
2.31565241       3.87904405E-08  
2.31726050       4.88193258E-08  
2.31886859       1.04877495E-07  
2.32047668       8.14563249E-08  
2.32208478       8.97475173E-08  
2.32369287       2.96236137E-08  
2.32530096       1.41822834E-08  
2.32690905       5.08380480E-08  
2.32851714       9.04067063E-08  
2.33012524       1.74259461E-07  
2.33173333       3.02035598E-07  
2.33334142       3.95499218E-07  
2.33494951       5.39071082E-07  
2.33655760       4.83610566E-07  
2.33816570       3.75666504E-07  
2.33977379       2.93875324E-07  
2.34138188       2.30054625E-07  
2.34298997       2.35918731E-07  
2.34459806       1.93171184E-07  
2.34620616       1.29795282E-07  
2.34781425       3.28618799E-07  
2.34942234       5.57715404E-07  
2.35103043       7.32569475E-07  
2.35263852       8.03293907E-07  
2.35424662       6.06249359E-07  
2.35585471       6.65226068E-07  
2.35746280       7.17455318E-07  
2.35907089       5.86689614E-07  
2.36067898       5.35500644E-07  
2.36228708       5.39874760E-07  
2.36389517       5.59092892E-07  
2.36550326       5.84343671E-07  
2.36711135       6.32406551E-07  
2.36871944       7.56385350E-07  
2.37032753       8.92796344E-07  
2.37193563       7.46151329E-07  
2.37354372       6.26451990E-07  
2.37515181       5.16531354E-07  
2.37675990       5.02344921E-07  
2.37836800       5.53383183E-07  
2.37997609       7.10592093E-07  
2.38158418       9.27638368E-07  
2.38319227       9.94379057E-07  
2.38480036       7.51504236E-07  
2.38640845       6.65919887E-07  
2.38801655       3.99870590E-07  
2.38962464       2.63255689E-07  
2.39123273       2.11704468E-07  
2.39284082       2.16310809E-07  
2.39444891       3.36597021E-07  
2.39605701       6.55574891E-07  
2.39766510       7.49546456E-07  
2.39927319       1.10124526E-06  
2.40088128       1.94208136E-06  
2.40248937       2.32008420E-06  
2.40409747       2.81377669E-06  
2.40570556       1.99954728E-06  
2.40731365       1.16344108E-06  
2.40892174       7.43208903E-07  
2.41052983       1.72232652E-07  
2.41213793       1.33961215E-07  
2.41374602       2.35654565E-07  
2.41535411       2.81650359E-07  
2.41696220       3.39991538E-07  
2.41857029       3.77530744E-07  
2.42017839       3.22965973E-07  
2.42178648       3.62931492E-07  
2.42339457       5.52187541E-07  
2.42500266       5.36809471E-07  
2.42661075       8.99174227E-07  
2.42821884       1.13584364E-06  
2.42982694       9.89254116E-07  
2.43143503       9.68337585E-07  
2.43304312       7.93843508E-07  
2.43465121       8.76363225E-07  
2.43625931       1.04515711E-06  
2.43786740       8.16078221E-07  
2.43947549       7.62867312E-07  
2.44108358       7.40091656E-07  
2.44269167       7.50938507E-07  
2.44429977       8.48547414E-07  
2.44590786       1.19539796E-06  
2.44751595       8.96002885E-07  
2.44912404       7.54718153E-07  
2.45073213       5.90556463E-07  
2.45234022       4.89110528E-07  
2.45394832       5.01887584E-07  
2.45555641       5.87884074E-07  
2.45716450       8.13379771E-07  
2.45877259       1.59656171E-06  
2.46038068       2.59398009E-06  
2.46198878       2.37066382E-06  
2.46359687       2.20298415E-06  
2.46520496       1.83991652E-06  
2.46681305       1.59945226E-06  
2.46842114       1.59155430E-06  
2.47002924       1.62272799E-06  
2.47163733       1.67347533E-06  
2.47324542       1.84044806E-06  
2.47485351       2.07262401E-06  
2.47646160       2.45588924E-06  
2.47806970       2.97494102E-06  
2.47967779       3.00385725E-06  
2.48128588       2.99721123E-06  
2.48289397       3.03959159E-06  
2.48450206       2.68149598E-06  
2.48611015       2.36737284E-06  
2.48771825       2.11474329E-06  
2.48932634       1.76304422E-06  
2.49093443       1.60124163E-06  
2.49254252       1.48395589E-06  
2.49415062       1.14842544E-06  
2.49575871       1.16997463E-06  
2.49736680       1.25576548E-06  
2.49897489       1.41590652E-06  
2.49977816       2.22007420E-06  
2.50112939       2.27099232E-06  
2.50248062       3.88813853E-06  
2.50383186       4.81072901E-06  
2.50518309       6.45363622E-06  
2.50653432       3.25815311E-06  
2.50788555       1.80313312E-06  
2.50923678       7.52516520E-07  
2.51058801       1.00634691E-06  
2.51193924       3.12971539E-06  
2.51329048       4.08126892E-06  
2.51464171       1.55211451E-06  
2.51599294       1.39796368E-06  
2.51734417       4.43866165E-07  
2.51869540       4.80562662E-06  
2.52004663       4.46796306E-06  
2.52139786       5.65355739E-06  
2.52274910       1.17045007E-06  
2.52410033       1.95656151E-06  
2.52545156       3.40925177E-06  
2.52680279       3.10397337E-06  
2.52815402       6.24014496E-07  
2.52950525       2.68450065E-06  
2.53085648       9.72407766E-07  
2.53220772       3.07943855E-06  
2.53355895       3.64214948E-06  
2.53491018       2.87386279E-06  
2.53626141       1.98854112E-06  
2.53761264       3.73460334E-06  
2.53896387       1.07947918E-06  
2.54031511       2.18621499E-06  
2.54166634       1.34643489E-06  
2.54301757       2.91865084E-06  
2.54436880       4.97834990E-06  
2.54572003       3.42934320E-06  
2.54707126       7.33648981E-06  
2.54842249       3.56550927E-06  
2.54977373       4.48052914E-06  
2.55112496       3.94950776E-06  
2.55247619       2.21506918E-06  
2.55382742       4.24528122E-06  
2.55517865       1.88265048E-06  
2.55652988       3.08841955E-06  
2.55788111       8.49220546E-07  
2.55923234       1.81676549E-06  
2.56058358       2.49750410E-06  
2.56193481       2.50665871E-06  
2.56328604       5.48402300E-07  
2.56463727       1.61443361E-06  
2.56598850       3.83315313E-06  
2.56733973       2.78618022E-06  
2.56869096       3.89603625E-06  
2.57004220       5.52046976E-06  
2.57139343       7.29072429E-06  
2.57274466       1.87522982E-06  
2.57409589       1.04070708E-06  
2.57544712       2.63575523E-06  
2.57679835       5.59285048E-06  
2.57814959       3.81791658E-06  
2.57950082       3.24662230E-06  
2.58085205       7.67217984E-07  
2.58220328       1.88709913E-06  
2.58355451       3.74513840E-06  
2.58490574       2.96617936E-06  
2.58625697       3.68535611E-06  
2.58760820       2.56766066E-06  
2.58895944       6.30685334E-07  
2.59031067       9.19612620E-07  
2.59166190       2.26925704E-06  
2.59301313       2.46311648E-06  
2.59436436       1.44871212E-06  
2.59571559       1.88185700E-08  
2.59706682       4.00289150E-06  
2.59841806       2.37290424E-06  
2.59976929       9.81123205E-07  
2.60112052       1.11488360E-06  
2.60247175       1.94661599E-06  
2.60382298       1.13381599E-06  
2.60517421       1.60382000E-07  
2.60652545       3.38577264E-06  
2.60787668       1.34230523E-06  
2.60922791       2.23483472E-06  
2.61057914       6.63093295E-08  
2.61193037       2.60185690E-07  
2.61328160       1.20563139E-06  
2.61463283       1.12513413E-06  
2.61598407       8.46184270E-07  
2.61733530       3.17313190E-06  
2.61868653       2.18449966E-06  
2.62003776       2.69365103E-06  
2.62138899       2.22179946E-06  
2.62274022       3.66931567E-06  
2.62409145       1.53583658E-06  
2.62544268       7.77850964E-07  
2.62679392       3.09748528E-06  
2.62814515       3.42527828E-06  
2.62949638       3.68583058E-06  
2.63084761       2.66144475E-06  
2.63219884       2.35098001E-06  
2.63355007       3.83173883E-06  
2.63490131       2.02704767E-06  
2.63625254       2.20021738E-06  
2.63760377       3.65950929E-06  
2.63895500       5.25490645E-06  
2.64030623       5.93176761E-06  
2.64165746       2.21861024E-06  
2.64300869       4.08372545E-06  
2.64435993       3.23563402E-06  
2.64571116       3.48166346E-06  
2.64706239       3.54920253E-06  
2.64841362       2.16217203E-06  
2.64976485       2.76080971E-06  
2.65111608       3.25417315E-06  
2.65246731       3.48597246E-06  
2.65381855       4.90518504E-06  
2.65516978       4.21213087E-06  
2.65652101       3.34446815E-06  
2.65787224       2.67805125E-06  
2.65922347       3.58994230E-06  
2.66057470       1.62810371E-06  
2.66192593       3.37530799E-06  
2.66327717       4.70007066E-06  
2.66462840       3.21984612E-06  
2.66597963       3.05697029E-07  
2.66733086       1.50745443E-08  
2.66868209       1.23926163E-06  
2.67003332       5.64305634E-07  
2.67138455       3.15501523E-06  
2.67273579       3.51396717E-06  
2.67408702       2.20023628E-06  
2.67543825       3.67219360E-06  
2.67678948       5.02833474E-06  
2.67814071       5.49450265E-06  
2.67949194       5.12972480E-06  
2.68084317       2.44874185E-06  
2.68219441       6.24745967E-07  
2.68354564       1.71093196E-06  
2.68489687       1.40385851E-06  
2.68624810       2.14600279E-06  
2.68759933       4.80953578E-06  
2.68895056       5.29494142E-06  
2.69030179       1.44557896E-06  
2.69165303       3.05890065E-06  
2.69300426       2.95631622E-06  
2.69435549       8.53259496E-07  
2.69570672       2.10161080E-06  
2.69705795       1.08057857E-06  
2.69840918       1.98490157E-06  
2.69976041       2.57996909E-06  
2.70111165       3.77852256E-06  
2.70246288       3.34096963E-06  
2.70381411       4.29099681E-06  
2.70516534       6.43800741E-06  
2.70651657       3.45627761E-06  
2.70786780       1.97284087E-06  
2.70921904       3.13791831E-06  
2.71057027       3.95972610E-06  
2.71192150       2.51438649E-06  
2.71327273       9.36155438E-07  
2.71462396       5.29917185E-07  
2.71597519       4.55346356E-07  
2.71732642       1.32302326E-06  
2.71867766       1.94826758E-06  
2.72002889       3.33272038E-06  
2.72138012       1.76049999E-06  
2.72273135       1.03292729E-06  
2.72408258       2.47682515E-06  
2.72543381       2.68163272E-06  
2.72678504       3.93535228E-06  
2.72813627       3.27546752E-06  
2.72948751       2.13003721E-06  
2.73083874       2.43258023E-06  
2.73218997       1.33550964E-06  
2.73354120       1.63199310E-06  
2.73489243       1.16030496E-07  
2.73624366       1.15566307E-06  
2.73759489       1.30781556E-06  
2.73894613       1.72747133E-06  
2.74029736       1.46808232E-06  
2.74164859       2.11737021E-06  
2.74299982       8.67238439E-07  
2.74435105       1.36277475E-06  
2.74570228       2.68678322E-08  
2.74705352       1.51578264E-08  
2.74840475       7.74257460E-07  
2.74975598       2.55535683E-06  
2.75110721       3.26897240E-06  
2.75245844       2.16130287E-06  
2.75380967       3.19554256E-06  
2.75516090       1.64572396E-06  
2.75651213       1.55946085E-06  
2.75786337       1.97926710E-06  
2.75921460       2.41883597E-06  
2.76056583       3.79739690E-06  
2.76191706       3.44047585E-06  
2.76326829       3.71619587E-06  
2.76461952       4.42840737E-06  
2.76597075       1.50541291E-06  
2.76732199       4.91582846E-07  
2.76867322       1.27408791E-06  
2.77002445       2.39014843E-06  
2.77137568       3.93839300E-06  
2.77272691       3.81624133E-06  
2.77407814       3.04252766E-06  
2.77542938       2.61056690E-06  
2.77678061       2.32295573E-06  
2.77813184       2.66673710E-06  
2.77948307       2.96425802E-06  
2.78083430       3.43750452E-06  
2.78218553       3.00720695E-06  
2.78353676       2.84594627E-06  
2.78488800       2.08905669E-06  
2.78623923       2.60791697E-06  
2.78759046       3.85174066E-06  
2.78894169       2.11985011E-06  
2.79029292       1.41721750E-06  
2.79164415       1.97949656E-06  
2.79299538       7.75836013E-07  
2.79434661       3.62290112E-06  
2.79569785       3.67584592E-06  
2.79704908       2.03501223E-06  
2.79840031       1.24080065E-06  
2.79975154       1.55746114E-06  
2.80110277       2.49272397E-06  
2.80245400       1.73355586E-06  
2.80380524       2.15645766E-06  
2.80515647       2.27084773E-06  
2.80650770       9.48451825E-07  
2.80785893       9.28587408E-07  
2.80921016       1.33335092E-06  
2.81056139       1.47695269E-06  
2.81191262       1.42964906E-06  
2.81326386       8.97817130E-07  
2.81461509       1.38851124E-06  
2.81596632       3.17564849E-06  
2.81731755       2.22233640E-06  
2.81866878       2.34200979E-06  
2.82002001       4.43190296E-06  
2.82137124       2.51930677E-06  
2.82272247       3.34523677E-06  
2.82407371       2.80693250E-06  
2.82542494       2.58585264E-06  
2.82677617       2.19645005E-06  
2.82812740       1.38945157E-06  
2.82947863       7.46229171E-07  
2.83082986       1.51171308E-06  
2.83218109       2.60236557E-06  
2.83353233       2.31755026E-06  
2.83488356       2.93031071E-06  
2.83623479       2.76083900E-06  
2.83758602       6.55836369E-06  
2.83893725       5.36662964E-06  
2.84028848       4.95509108E-06  
2.84163972       1.33959768E-06  
2.84299095       1.38779227E-06  
2.84434218       3.23895704E-06  
2.84569341       4.88677011E-06  
2.84704464       3.00442521E-06  
2.84839587       2.60122255E-06  
2.84974710       5.05048612E-06  
2.85109834       4.75509260E-06  
2.85244957       2.74505112E-06  
2.85380080       5.99104731E-07  
2.85515203       5.66132681E-07  
2.85650326       6.27666150E-07  
2.85785449       1.95458509E-07  
2.85920572       1.91948107E-06  
2.86055696       1.22633584E-06  
2.86190819       1.06764797E-06  
2.86325942       1.16000045E-06  
2.86461065       2.40464529E-06  
2.86596188       1.66635153E-06  
2.86731311       1.25893965E-06  
2.86866434       4.83900234E-07  
2.87001558       1.78237602E-07  
