# F444W filter 
# Wavelength [microns]  |  Transmission efficiency
2.00046639       2.21164809E-10  
2.00207448       1.99461564E-10  
2.00368257       1.80963808E-10  
2.00529066       1.65330887E-10  
2.00689875       1.51783053E-10  
2.00850685       1.40891477E-10  
2.01011494       1.31545798E-10  
2.01172303       1.23129719E-10  
2.01333112       1.16628021E-10  
2.01493921       1.11345046E-10  
2.01654731       1.05121714E-10  
2.01815540       1.00553814E-10  
2.01976349       9.52414476E-11  
2.02137158       9.14044864E-11  
2.02297967       8.77783094E-11  
2.02458777       8.32673817E-11  
2.02619586       8.02978774E-11  
2.02780395       7.77145724E-11  
2.02941204       7.54051405E-11  
2.03102013       7.34382779E-11  
2.03262822       7.18851922E-11  
2.03423632       6.97608192E-11  
2.03584441       6.88514225E-11  
2.03745250       6.82484787E-11  
2.03906059       6.80452442E-11  
2.04066868       6.87312180E-11  
2.04227678       6.88810140E-11  
2.04388487       6.92478893E-11  
2.04549296       6.98448164E-11  
2.04710105       7.06851599E-11  
2.04870914       7.23672679E-11  
2.05031724       7.41499507E-11  
2.05192533       7.59888606E-11  
2.05353342       7.90445832E-11  
2.05514151       8.17731541E-11  
2.05674960       8.55796333E-11  
2.05835770       8.94702703E-11  
2.05996579       9.44550803E-11  
2.06157388       9.98361699E-11  
2.06318197       1.05684450E-10  
2.06479006       1.12463976E-10  
2.06639816       1.20292180E-10  
2.06800625       1.29086039E-10  
2.06961434       1.38774429E-10  
2.07122243       1.49843012E-10  
2.07283052       1.63947635E-10  
2.07443862       1.78753913E-10  
2.07604671       1.97072582E-10  
2.07765480       2.16904318E-10  
2.07926289       2.41278211E-10  
2.08087098       2.69353156E-10  
2.08247908       3.00206968E-10  
2.08408717       3.38029235E-10  
2.08569526       3.82291118E-10  
2.08730335       4.34049707E-10  
2.08891144       4.94664435E-10  
2.09051954       5.66921892E-10  
2.09212763       6.51914490E-10  
2.09373572       7.53955316E-10  
2.09534381       8.79588537E-10  
2.09695190       1.02182811E-09  
2.09856000       1.19139609E-09  
2.10016809       1.39608958E-09  
2.10177618       1.62652580E-09  
2.10338427       1.90047019E-09  
2.10499236       2.21103977E-09  
2.10660045       2.54111691E-09  
2.10820855       2.90317941E-09  
2.10981664       3.27001033E-09  
2.11142473       3.62600724E-09  
2.11303282       3.94143471E-09  
2.11464091       4.18267986E-09  
2.11624901       4.37260477E-09  
2.11785710       4.45938356E-09  
2.11946519       4.48251394E-09  
2.12107328       4.44943770E-09  
2.12268137       4.36698292E-09  
2.12428947       4.23752715E-09  
2.12589756       4.10578235E-09  
2.12750565       3.96682537E-09  
2.12911374       3.81803311E-09  
2.13072183       3.67890579E-09  
2.13232993       3.54008967E-09  
2.13393802       3.40731323E-09  
2.13554611       3.28700157E-09  
2.13715420       3.19153406E-09  
2.13876229       3.10029382E-09  
2.14037039       3.02760798E-09  
2.14197848       2.95637056E-09  
2.14358657       2.90769063E-09  
2.14519466       2.86430763E-09  
2.14680275       2.82391892E-09  
2.14841085       2.78791262E-09  
2.15001894       2.75714277E-09  
2.15162703       2.73537219E-09  
2.15323512       2.72742266E-09  
2.15484321       2.72709144E-09  
2.15645131       2.74000585E-09  
2.15805940       2.75267234E-09  
2.15966749       2.78066646E-09  
2.16127558       2.81856046E-09  
2.16288367       2.85253260E-09  
2.16449177       2.90068110E-09  
2.16609986       2.95321357E-09  
2.16770795       3.00824714E-09  
2.16931604       3.06837826E-09  
2.17092413       3.12791023E-09  
2.17253222       3.20548495E-09  
2.17414032       3.28812660E-09  
2.17574841       3.38006472E-09  
2.17735650       3.47961083E-09  
2.17896459       3.58742186E-09  
2.18057269       3.70746870E-09  
2.18218078       3.83762789E-09  
2.18378887       3.98408721E-09  
2.18539696       4.15167201E-09  
2.18700505       4.32532311E-09  
2.18861314       4.51977406E-09  
2.19022124       4.73521842E-09  
2.19182933       4.97560333E-09  
2.19343742       5.24203449E-09  
2.19504551       5.53778474E-09  
2.19665360       5.88134531E-09  
2.19826170       6.27114743E-09  
2.19986979       6.71685597E-09  
2.20147788       7.25051283E-09  
2.20308597       7.85415426E-09  
2.20469406       8.55445362E-09  
2.20630216       9.36860021E-09  
2.20791025       1.03222734E-08  
2.20951834       1.14680709E-08  
2.21112643       1.28179712E-08  
2.21273452       1.44560871E-08  
2.21434262       1.64981427E-08  
2.21595071       1.90056235E-08  
2.21755880       2.22245371E-08  
2.21916689       2.62256668E-08  
2.22077498       3.11753475E-08  
2.22238308       3.71145896E-08  
2.22399117       4.36673818E-08  
2.22559926       4.98722198E-08  
2.22720735       5.50486170E-08  
2.22881544       5.85763641E-08  
2.23042353       6.08146679E-08  
2.23203163       6.24542356E-08  
2.23363972       6.42285350E-08  
2.23524781       6.67014044E-08  
2.23685590       7.02319930E-08  
2.23846400       7.50342518E-08  
2.24007209       8.11538977E-08  
2.24168018       8.91931774E-08  
2.24328827       9.90313869E-08  
2.24489636       1.11211519E-07  
2.24650445       1.25906421E-07  
2.24811255       1.43230763E-07  
2.24972064       1.63803456E-07  
2.25132873       1.87838215E-07  
2.25293682       2.14931510E-07  
2.25454491       2.45586306E-07  
2.25615301       2.79105848E-07  
2.25776110       3.15388710E-07  
2.25936919       3.53416648E-07  
2.26097728       3.93308883E-07  
2.26258537       4.33679344E-07  
2.26419347       4.74026785E-07  
2.26580156       5.13862116E-07  
2.26740965       5.51791652E-07  
2.26901774       5.88082939E-07  
2.27062583       6.22583438E-07  
2.27223393       6.54885591E-07  
2.27384202       6.86135545E-07  
2.27545011       7.15554833E-07  
2.27705820       7.44279712E-07  
2.27866629       7.71446015E-07  
2.28027439       7.98274251E-07  
2.28188248       8.27110548E-07  
2.28349057       8.58382389E-07  
2.28509866       8.93152639E-07  
2.28670675       9.34124621E-07  
2.28831484       9.81449629E-07  
2.28992294       1.03816356E-06  
2.29153103       1.10551703E-06  
2.29313912       1.18520467E-06  
2.29474721       1.27987926E-06  
2.29635531       1.39130161E-06  
2.29796340       1.52084333E-06  
2.29957149       1.67377678E-06  
2.30117958       1.84688646E-06  
2.30278767       2.04941355E-06  
2.30439577       2.28636542E-06  
2.30600386       2.56559640E-06  
2.30761195       2.89931725E-06  
2.30922004       3.29357703E-06  
2.31082813       3.77300345E-06  
2.31243622       4.36025437E-06  
2.31404432       5.07225402E-06  
2.31565241       5.97130632E-06  
2.31726050       7.08485787E-06  
2.31886859       8.43280191E-06  
2.32047668       1.00487182E-05  
2.32208478       1.19035951E-05  
2.32369287       1.39741686E-05  
2.32530096       1.61572760E-05  
2.32690905       1.84336116E-05  
2.32851714       2.07293446E-05  
2.33012524       2.30270662E-05  
2.33173333       2.53490973E-05  
2.33334142       2.76146093E-05  
2.33494951       2.98132318E-05  
2.33655760       3.17699277E-05  
2.33816570       3.34829545E-05  
2.33977379       3.47860253E-05  
2.34138188       3.56955799E-05  
2.34298997       3.62568861E-05  
2.34459806       3.65090319E-05  
2.34620616       3.66084467E-05  
2.34781425       3.66492790E-05  
2.34942234       3.67517496E-05  
2.35103043       3.69728023E-05  
2.35263852       3.73227890E-05  
2.35424662       3.78954765E-05  
2.35585471       3.86343809E-05  
2.35746280       3.95991464E-05  
2.35907089       4.06705437E-05  
2.36067898       4.19653003E-05  
2.36228708       4.32858107E-05  
2.36389517       4.46733479E-05  
2.36550326       4.59882057E-05  
2.36711135       4.71860308E-05  
2.36871944       4.82332837E-05  
2.37032753       4.90190615E-05  
2.37193563       4.95187061E-05  
2.37354372       4.97440766E-05  
2.37515181       4.95410904E-05  
2.37675990       4.91333881E-05  
2.37836800       4.86718900E-05  
2.37997609       4.82208549E-05  
2.38158418       4.78496439E-05  
2.38319227       4.74758321E-05  
2.38480036       4.71516689E-05  
2.38640845       4.68792001E-05  
2.38801655       4.66867973E-05  
2.38962464       4.64733797E-05  
2.39123273       4.62983444E-05  
2.39284082       4.61654449E-05  
2.39444891       4.60970303E-05  
2.39605701       4.60755588E-05  
2.39766510       4.60647645E-05  
2.39927319       4.60917117E-05  
2.40088128       4.61103457E-05  
2.40248937       4.61017064E-05  
2.40409747       4.60640448E-05  
2.40570556       4.59437657E-05  
2.40731365       4.57330665E-05  
2.40892174       4.54410685E-05  
2.41052983       4.51488656E-05  
2.41213793       4.48567641E-05  
2.41374602       4.45994437E-05  
2.41535411       4.44204813E-05  
2.41696220       4.43185689E-05  
2.41857029       4.43111852E-05  
2.42017839       4.43805334E-05  
2.42178648       4.45688566E-05  
2.42339457       4.46939555E-05  
2.42500266       4.47556062E-05  
2.42661075       4.47562042E-05  
2.42821884       4.46575450E-05  
2.42982694       4.44601806E-05  
2.43143503       4.41963380E-05  
2.43304312       4.39594268E-05  
2.43465121       4.37493550E-05  
2.43625931       4.35983467E-05  
2.43786740       4.35333225E-05  
2.43947549       4.35567393E-05  
2.44108358       4.36840977E-05  
2.44269167       4.39134175E-05  
2.44429977       4.42417367E-05  
2.44590786       4.45768522E-05  
2.44751595       4.48545273E-05  
2.44912404       4.50989269E-05  
2.45073213       4.52774465E-05  
2.45234022       4.53788561E-05  
2.45394832       4.54016739E-05  
2.45555641       4.53775714E-05  
2.45716450       4.53273209E-05  
2.45877259       4.52695917E-05  
2.46038068       4.52367072E-05  
2.46198878       4.52243572E-05  
2.46359687       4.52565515E-05  
2.46520496       4.53763665E-05  
2.46681305       4.55939122E-05  
2.46842114       4.58867567E-05  
2.47002924       4.62549320E-05  
2.47163733       4.67150982E-05  
2.47324542       4.72721748E-05  
2.47485351       4.79302394E-05  
2.47646160       4.86189689E-05  
2.47806970       4.93605597E-05  
2.47967779       5.00509011E-05  
2.48128588       5.06332153E-05  
2.48289397       5.11021459E-05  
2.48450206       5.14369394E-05  
2.48611015       5.15999107E-05  
2.48771825       5.16079015E-05  
2.48932634       5.14371533E-05  
2.49093443       5.11116709E-05  
2.49254252       5.07297107E-05  
2.49415062       9.73266773E-04  
2.49575871       1.01510675E-03  
2.49736680       1.05589636E-03  
2.49897489       1.09536445E-03  
2.49977816       1.13411002E-03  
2.50112939       1.17146299E-03  
2.50248062       1.20771914E-03  
2.50383186       1.24251544E-03  
2.50518309       3.51853054E-04  
2.50653432       3.41181130E-04  
2.50788555       3.30495735E-04  
2.50923678       3.19995627E-04  
2.51058801       3.08196702E-04  
2.51193924       2.96628160E-04  
2.51329048       2.84544928E-04  
2.51464171       2.72588888E-04  
2.51599294       2.61095075E-04  
2.51734417       2.49721162E-04  
2.51869540       2.37758106E-04  
2.52004663       2.25367992E-04  
2.52139786       2.13927370E-04  
2.52274910       2.02386559E-04  
2.52410033       1.90823279E-04  
2.52545156       1.79421910E-04  
2.52680279       1.67651180E-04  
2.52815402       1.56238036E-04  
2.52950525       1.45689340E-04  
2.53085648       1.35666220E-04  
2.53220772       1.25663566E-04  
2.53355895       1.15992368E-04  
2.53491018       1.06668360E-04  
2.53626141       9.78042477E-05  
2.53761264       8.95890967E-05  
2.53896387       8.16725829E-05  
2.54031511       7.39846565E-05  
2.54166634       6.71806611E-05  
2.54301757       6.05872766E-05  
2.54436880       5.43710676E-05  
2.54572003       4.86477215E-05  
2.54707126       4.36736619E-05  
2.54842249       3.91196555E-05  
2.54977373       3.50948930E-05  
2.55112496       3.09815498E-05  
2.55247619       2.69766471E-05  
2.55382742       2.40178918E-05  
2.55517865       2.13563082E-05  
2.55652988       1.94549565E-05  
2.55788111       1.65932557E-05  
2.55923234       1.42213207E-05  
2.56058358       1.24981493E-05  
2.56193481       1.14535696E-05  
2.56328604       1.01070990E-05  
2.56463727       8.74325007E-06  
2.56598850       7.57457520E-06  
2.56733973       6.36045053E-06  
2.56869096       6.02477033E-06  
2.57004220       5.61560122E-06  
2.57139343       4.84538241E-06  
2.57274466       4.36064243E-06  
2.57409589       4.08856600E-06  
2.57544712       3.80675279E-06  
2.57679835       3.44134021E-06  
2.57814959       3.24641224E-06  
2.57950082       3.01329081E-06  
2.58085205       2.88466185E-06  
2.58220328       3.06826835E-06  
2.58355451       2.87617596E-06  
2.58490574       2.74994946E-06  
2.58625697       2.59974217E-06  
2.58760820       2.59969598E-06  
2.58895944       2.36809523E-06  
2.59031067       2.39525046E-06  
2.59166190       2.53257282E-06  
2.59301313       2.40512988E-06  
2.59436436       2.23620434E-06  
2.59571559       2.05590054E-06  
2.59706682       1.77174374E-06  
2.59841806       1.59645951E-06  
2.59976929       1.54607875E-06  
2.60112052       1.70533126E-06  
2.60247175       1.76751785E-06  
2.60382298       1.69877161E-06  
2.60517421       2.07481127E-06  
2.60652545       2.30018971E-06  
2.60787668       2.42543539E-06  
2.60922791       2.53905212E-06  
2.61057914       2.74594689E-06  
2.61193037       2.67559294E-06  
2.61328160       2.31649908E-06  
2.61463283       2.22659834E-06  
2.61598407       1.75019475E-06  
2.61733530       1.66214367E-06  
2.61868653       1.59615282E-06  
2.62003776       1.49949467E-06  
2.62138899       1.50577074E-06  
2.62274022       1.35988258E-06  
2.62409145       1.28601739E-06  
2.62544268       1.28971718E-06  
2.62679392       1.55861321E-06  
2.62814515       1.52308153E-06  
2.62949638       1.50990000E-06  
2.63084761       1.65254139E-06  
2.63219884       1.63938712E-06  
2.63355007       1.82213329E-06  
2.63490131       1.97651696E-06  
2.63625254       1.81575400E-06  
2.63760377       1.61951949E-06  
2.63895500       1.85824609E-06  
2.64030623       1.89258358E-06  
2.64165746       1.66546881E-06  
2.64300869       1.64883103E-06  
2.64435993       1.53421816E-06  
2.64571116       1.48953342E-06  
2.64706239       1.65577645E-06  
2.64841362       1.75758162E-06  
2.64976485       1.68081677E-06  
2.65111608       1.67468829E-06  
2.65246731       1.68523334E-06  
2.65381855       1.70308798E-06  
2.65516978       1.87250448E-06  
2.65652101       1.99322092E-06  
2.65787224       2.20847322E-06  
2.65922347       2.21697047E-06  
2.66057470       2.27232256E-06  
2.66192593       2.72173528E-06  
2.66327717       3.30624244E-06  
2.66462840       3.41594405E-06  
2.66597963       3.02860079E-06  
2.66733086       2.88517494E-06  
2.66868209       2.48304627E-06  
2.67003332       2.22865794E-06  
2.67138455       2.04818556E-06  
2.67273579       2.06124765E-06  
2.67408702       1.51114700E-06  
2.67543825       1.14216134E-06  
2.67678948       1.10699579E-06  
2.67814071       1.12897968E-06  
2.67949194       1.40577858E-06  
2.68084317       1.66159441E-06  
2.68219441       1.64744324E-06  
2.68354564       1.07741188E-06  
2.68489687       1.03700956E-06  
2.68624810       1.09262033E-06  
2.68759933       1.20482021E-06  
2.68895056       1.22265801E-06  
2.69030179       1.02315539E-06  
2.69165303       8.06719498E-07  
2.69300426       6.37098654E-07  
2.69435549       6.32956247E-07  
2.69570672       7.95099887E-07  
2.69705795       9.20382820E-07  
2.69840918       9.21111293E-07  
2.69976041       7.99779680E-07  
2.70111165       8.80688278E-07  
2.70246288       1.09550663E-06  
2.70381411       1.45053088E-06  
2.70516534       1.58925404E-06  
2.70651657       1.48452348E-06  
2.70786780       1.50908715E-06  
2.70921904       1.51959829E-06  
2.71057027       1.65588737E-06  
2.71192150       1.68445254E-06  
2.71327273       1.43033384E-06  
2.71462396       1.14968504E-06  
2.71597519       1.00586135E-06  
2.71732642       9.70590427E-07  
2.71867766       8.19363743E-07  
2.72002889       9.68435200E-07  
2.72138012       9.77953687E-07  
2.72273135       8.62234731E-07  
2.72408258       1.00917933E-06  
2.72543381       1.14815258E-06  
2.72678504       1.31879698E-06  
2.72813627       1.40970135E-06  
2.72948751       1.52909324E-06  
2.73083874       1.36421035E-06  
2.73218997       1.22828042E-06  
2.73354120       1.16670293E-06  
2.73489243       1.36348007E-06  
2.73624366       1.29606651E-06  
2.73759489       1.24730124E-06  
2.73894613       1.19015678E-06  
2.74029736       1.13938870E-06  
2.74164859       1.16767360E-06  
2.74299982       1.37608139E-06  
2.74435105       1.76239160E-06  
2.74570228       1.46422081E-06  
2.74705352       1.40271213E-06  
2.74840475       1.32777451E-06  
2.74975598       1.27252449E-06  
2.75110721       1.24606051E-06  
2.75245844       1.24758657E-06  
2.75380967       1.07256749E-06  
2.75516090       8.36571843E-07  
2.75651213       8.05007486E-07  
2.75786337       8.05789920E-07  
2.75921460       7.23402699E-07  
2.76056583       7.12266901E-07  
2.76191706       7.23850900E-07  
2.76326829       7.45197507E-07  
2.76461952       8.75538035E-07  
2.76597075       9.18577809E-07  
2.76732199       1.08427433E-06  
2.76867322       1.04184834E-06  
2.77002445       1.24688627E-06  
2.77137568       1.52799069E-06  
2.77272691       1.59272483E-06  
2.77407814       1.63375730E-06  
2.77542938       1.45551200E-06  
2.77678061       1.24616669E-06  
2.77813184       1.15526969E-06  
2.77948307       1.37414392E-06  
2.78083430       1.40812485E-06  
2.78218553       1.17893513E-06  
2.78353676       1.03298921E-06  
2.78488800       1.04180090E-06  
2.78623923       1.29867056E-06  
2.78759046       1.55062022E-06  
2.78894169       1.49042484E-06  
2.79029292       1.24533436E-06  
2.79164415       1.09085746E-06  
2.79299538       1.12508294E-06  
2.79434661       1.09065551E-06  
2.79569785       8.74084342E-07  
2.79704908       6.11500080E-07  
2.79840031       7.09486909E-07  
2.79975154       8.64796531E-07  
2.80110277       9.74665155E-07  
2.80245400       1.07258634E-06  
2.80380524       1.11498956E-06  
2.80515647       1.19463323E-06  
2.80650770       1.27828774E-06  
2.80785893       1.41360209E-06  
2.80921016       1.28842322E-06  
2.81056139       1.29098960E-06  
2.81191262       1.38673064E-06  
2.81326386       1.47371137E-06  
2.81461509       1.47035544E-06  
2.81596632       1.54028499E-06  
2.81731755       1.68141479E-06  
2.81866878       1.50624327E-06  
2.82002001       1.33665426E-06  
2.82137124       1.30710471E-06  
2.82272247       1.24121260E-06  
2.82407371       9.67250992E-07  
2.82542494       9.31177477E-07  
2.82677617       9.75591147E-07  
2.82812740       7.88286723E-07  
2.82947863       8.57516846E-07  
2.83082986       8.47846000E-07  
2.83218109       6.63577651E-07  
2.83353233       7.60587793E-07  
2.83488356       8.68807169E-07  
2.83623479       7.44557268E-07  
2.83758602       5.46547968E-07  
2.83893725       5.44060613E-07  
2.84028848       5.29140278E-07  
2.84163972       5.73099873E-07  
2.84299095       7.61471751E-07  
2.84434218       5.71631924E-07  
2.84569341       5.55549251E-07  
2.84704464       7.37656273E-07  
2.84839587       9.53799623E-07  
2.84974710       1.06130780E-06  
2.85109834       1.07926306E-06  
2.85244957       9.87880077E-07  
2.85380080       8.04101537E-07  
2.85515203       8.28816947E-07  
2.85650326       7.58840061E-07  
2.85785449       6.42357936E-07  
2.85920572       4.60753909E-07  
2.86055696       3.55613249E-07  
2.86190819       2.79706963E-07  
2.86325942       3.42265575E-07  
2.86461065       4.18595726E-07  
2.86596188       4.56211542E-07  
2.86731311       5.68793302E-07  
2.86866434       7.40480733E-07  
2.87001558       8.50070564E-07  
