# F356W filter 
# Wavelength [microns]  |  Transmission efficiency
2.00046639       1.11027748E-10  
2.00261051       8.75189874E-11  
2.00475463       6.88781415E-11  
2.00689875       5.39912192E-11  
2.00904288       4.29200652E-11  
2.01118700       3.39527467E-11  
2.01333112       2.69887315E-11  
2.01547525       2.17085301E-11  
2.01761937       1.72441502E-11  
2.01976349       1.38040499E-11  
2.02190761       1.14547919E-11  
2.02405174       9.42224151E-12  
2.02619586       7.87299376E-12  
2.02833998       6.79792778E-12  
2.03048410       6.02819949E-12  
2.03262822       5.38709859E-12  
2.03477235       4.80337628E-12  
2.03691647       4.35855752E-12  
2.03906059       3.84737082E-12  
2.04120472       3.55865774E-12  
2.04334884       3.29497907E-12  
2.04549296       2.96649190E-12  
2.04763708       2.71052014E-12  
2.04978121       2.62225651E-12  
2.05192533       2.66418563E-12  
2.05406945       2.81964167E-12  
2.05621357       3.12236477E-12  
2.05835770       3.61223712E-12  
2.06050182       4.07436971E-12  
2.06264594       4.35240984E-12  
2.06479006       4.57171380E-12  
2.06693419       4.70416160E-12  
2.06907831       4.61747669E-12  
2.07122243       4.57289109E-12  
2.07336656       5.12775867E-12  
2.07551068       5.85922674E-12  
2.07765480       7.06242895E-12  
2.07979892       8.91407230E-12  
2.08194305       1.11057923E-11  
2.08408717       1.34594064E-11  
2.08623129       1.54783564E-11  
2.08837541       1.86016970E-11  
2.09051954       2.20419094E-11  
2.09266366       2.53054604E-11  
2.09480778       3.04686985E-11  
2.09695190       3.69930455E-11  
2.09909603       4.40858686E-11  
2.10124015       5.28868884E-11  
2.10338427       6.76491696E-11  
2.10552839       8.83570453E-11  
2.10767252       1.09872283E-10  
2.10981664       1.37765962E-10  
2.11196076       1.71522390E-10  
2.11410488       1.96124981E-10  
2.11624901       2.03108264E-10  
2.11839313       1.95594353E-10  
2.12053725       1.82075219E-10  
2.12268137       1.64803444E-10  
2.12482550       1.48164519E-10  
2.12696962       1.34685811E-10  
2.12911374       1.23889222E-10  
2.13125787       1.13922171E-10  
2.13340199       1.09702932E-10  
2.13554611       1.12134178E-10  
2.13769023       1.11971469E-10  
2.13983436       1.07256824E-10  
2.14197848       1.01433272E-10  
2.14412260       9.69319296E-11  
2.14626672       8.89850926E-11  
2.14841085       8.16939348E-11  
2.15055497       8.12997848E-11  
2.15269909       8.68515485E-11  
2.15484321       9.44307673E-11  
2.15698734       1.02420836E-10  
2.15913146       1.14636686E-10  
2.16127558       1.29860489E-10  
2.16341970       1.34381072E-10  
2.16556383       1.26401632E-10  
2.16770795       1.11055869E-10  
2.16985207       9.80793769E-11  
2.17199619       9.15624044E-11  
2.17414032       8.83506942E-11  
2.17628444       9.17425601E-11  
2.17842856       9.79030865E-11  
2.18057269       1.04624572E-10  
2.18271681       1.14783598E-10  
2.18486093       1.33578791E-10  
2.18700505       1.52299482E-10  
2.18914917       1.61590711E-10  
2.19129330       1.69992342E-10  
2.19343742       1.90001969E-10  
2.19558154       2.12381886E-10  
2.19772567       2.24328092E-10  
2.19986979       2.32493609E-10  
2.20201391       2.75024063E-10  
2.20415803       3.56496429E-10  
2.20630216       4.59398862E-10  
2.20844628       5.87311307E-10  
2.21059040       7.47040597E-10  
2.21273452       9.47866923E-10  
2.21487865       1.15303847E-09  
2.21702277       1.40318414E-09  
2.21916689       1.75060206E-09  
2.22131101       2.30162385E-09  
2.22345514       2.94145565E-09  
2.22559926       3.53208835E-09  
2.22774338       4.20062136E-09  
2.22988751       4.74113642E-09  
2.23203163       5.07943107E-09  
2.23417575       5.24542450E-09  
2.23631987       5.58625275E-09  
2.23846400       5.92527169E-09  
2.24060812       6.20181755E-09  
2.24275224       6.67869795E-09  
2.24489636       7.89593158E-09  
2.24704048       1.00201328E-08  
2.24918461       1.25001981E-08  
2.25132873       1.55571108E-08  
2.25347285       1.91104168E-08  
2.25561698       2.32507922E-08  
2.25776110       2.72677643E-08  
2.25990522       3.11267553E-08  
2.26204934       3.46845546E-08  
2.26419347       3.90462296E-08  
2.26633759       4.28753757E-08  
2.26848171       4.32873229E-08  
2.27062583       4.27726172E-08  
2.27276996       4.45620777E-08  
2.27491408       4.79439090E-08  
2.27705820       4.94685590E-08  
2.27920232       5.09823226E-08  
2.28134645       5.32280641E-08  
2.28349057       5.61507952E-08  
2.28563469       5.99904607E-08  
2.28777882       6.13337374E-08  
2.28992294       6.22421277E-08  
2.29206706       6.58020858E-08  
2.29421118       7.04199012E-08  
2.29635531       7.26752502E-08  
2.29849943       7.49722379E-08  
2.30064355       8.94878073E-08  
2.30278767       1.12167344E-07  
2.30493180       1.38984528E-07  
2.30707592       1.72168399E-07  
2.30922004       2.18383751E-07  
2.31136416       2.89073896E-07  
2.31350829       3.75649794E-07  
2.31565241       4.77549275E-07  
2.31779653       6.16374224E-07  
2.31994065       8.08714877E-07  
2.32208478       1.06083780E-06  
2.32422890       1.28261978E-06  
2.32637302       1.46322819E-06  
2.32851714       1.65907135E-06  
2.33066127       1.94641789E-06  
2.33280539       2.16306658E-06  
2.33494951       2.23165283E-06  
2.33709364       2.33278720E-06  
2.33923776       2.36175861E-06  
2.34138188       2.29665756E-06  
2.34352600       2.10507424E-06  
2.34567013       1.98793931E-06  
2.34781425       1.99643427E-06  
2.34995837       2.22524333E-06  
2.35210249       2.54867278E-06  
2.35424662       2.76583662E-06  
2.35639074       2.85187617E-06  
2.35853486       2.97458795E-06  
2.36067898       3.09368450E-06  
2.36282311       2.90645745E-06  
2.36496723       2.58715128E-06  
2.36711135       2.41862644E-06  
2.36925547       2.41498058E-06  
2.37139960       2.31590375E-06  
2.37354372       2.21205254E-06  
2.37568784       2.30801909E-06  
2.37783196       2.56887409E-06  
2.37997609       2.97284244E-06  
2.38212021       3.45636476E-06  
2.38426433       3.76882248E-06  
2.38640845       3.86625595E-06  
2.38855258       3.85255768E-06  
2.39069670       4.00792755E-06  
2.39284082       4.19469345E-06  
2.39498495       4.17790726E-06  
2.39712907       4.32329249E-06  
2.39927319       4.65182030E-06  
2.40141731       4.81605257E-06  
2.40356143       4.68682428E-06  
2.40570556       4.47464996E-06  
2.40784968       4.39942185E-06  
2.40999380       4.33051683E-06  
2.41213793       4.15702786E-06  
2.41428205       3.97549591E-06  
2.41642617       3.73259539E-06  
2.41857029       3.43654290E-06  
2.42071442       3.36852697E-06  
2.42285854       3.39160145E-06  
2.42500266       3.22842728E-06  
2.42714678       2.98768449E-06  
2.42929091       3.13462226E-06  
2.43143503       3.76469569E-06  
2.43357915       4.14851239E-06  
2.43572327       4.29365786E-06  
2.43786740       4.37105489E-06  
2.44001152       4.37031226E-06  
2.44215564       4.22733057E-06  
2.44429977       3.82395475E-06  
2.44644389       3.54915367E-06  
2.44858801       3.39799033E-06  
2.45073213       3.33594378E-06  
2.45287626       3.62328873E-06  
2.45502038       4.11879234E-06  
2.45716450       4.57269684E-06  
2.45930862       4.88355346E-06  
2.46145274       5.33617636E-06  
2.46359687       5.92205387E-06  
2.46574099       5.90558170E-06  
2.46788511       5.53376235E-06  
2.47002924       5.15601724E-06  
2.47217336       4.97183219E-06  
2.47431748       4.75958247E-06  
2.47646160       4.36085780E-06  
2.47860573       4.18796011E-06  
2.48074985       4.05794067E-06  
2.48289397       3.91012274E-06  
2.48503809       3.76730111E-06  
2.48718222       3.70437801E-06  
2.48932634       3.46101168E-06  
2.49147046       3.03352637E-06  
2.49361458       2.65436733E-06  
2.49575871       2.44063206E-06  
2.49790283       3.39395333E-06  
2.50004695       4.22905204E-06  
2.50219108       5.56362108E-06  
2.50383186       7.29215688E-06  
2.50518309       8.69836162E-06  
2.50653432       9.93224550E-06  
2.50788555       1.07415567E-05  
2.50923678       1.19371369E-05  
2.51058801       1.19758656E-05  
2.51193924       1.19349318E-05  
2.51329048       1.20869150E-05  
2.51464171       1.21746663E-05  
2.51599294       1.20937769E-05  
2.51734417       1.19103205E-05  
2.51869540       1.24479313E-05  
2.52004663       1.26227013E-05  
2.52139786       1.25264301E-05  
2.52274910       1.23627696E-05  
2.52410033       1.26329475E-05  
2.52545156       1.22396868E-05  
2.52680279       1.19563017E-05  
2.52815402       1.23842589E-05  
2.52950525       1.26286483E-05  
2.53085648       1.25355109E-05  
2.53220772       1.28492114E-05  
2.53355895       1.35590588E-05  
2.53491018       1.33700069E-05  
2.53626141       1.32606664E-05  
2.53761264       1.36455986E-05  
2.53896387       1.38594739E-05  
2.54031511       1.41217012E-05  
2.54166634       1.44165122E-05  
2.54301757       1.47548400E-05  
2.54436880       1.48848797E-05  
2.54572003       1.51254536E-05  
2.54707126       1.58790033E-05  
2.54842249       1.64024340E-05  
2.54977373       1.62173694E-05  
2.55112496       1.62100883E-05  
2.55247619       1.65977369E-05  
2.55382742       1.64012442E-05  
2.55517865       1.60263929E-05  
2.55652988       1.57316688E-05  
2.55788111       1.48845770E-05  
2.55923234       1.46545915E-05  
2.56058358       1.46558157E-05  
2.56193481       1.42140777E-05  
2.56328604       1.37222725E-05  
2.56463727       1.34234700E-05  
2.56598850       1.35618741E-05  
2.56733973       1.39886154E-05  
2.56869096       1.45093314E-05  
2.57004220       1.44195266E-05  
2.57139343       1.47290639E-05  
2.57274466       1.52671051E-05  
2.57409589       1.55380465E-05  
2.57544712       1.61187680E-05  
2.57679835       1.58854277E-05  
2.57814959       1.55893368E-05  
2.57950082       1.59305982E-05  
2.58085205       1.63227295E-05  
2.58220328       1.64948227E-05  
2.58355451       1.63816393E-05  
2.58490574       1.63544201E-05  
2.58625697       1.57513157E-05  
2.58760820       1.55607804E-05  
2.58895944       1.53493582E-05  
2.59031067       1.46922585E-05  
2.59166190       1.42325948E-05  
2.59301313       1.33795765E-05  
2.59436436       1.21138134E-05  
2.59571559       1.06401007E-05  
2.59706682       1.01580265E-05  
2.59841806       9.75443220E-06  
2.59976929       8.97922893E-06  
2.60112052       8.28209333E-06  
2.60247175       7.32995723E-06  
2.60382298       7.01136594E-06  
2.60517421       6.91858760E-06  
2.60652545       7.16850741E-06  
2.60787668       6.85840464E-06  
2.60922791       6.38426160E-06  
2.61057914       6.55410029E-06  
2.61193037       6.43675295E-06  
2.61328160       6.05039181E-06  
2.61463283       5.57117285E-06  
2.61598407       5.51959936E-06  
2.61733530       5.27950800E-06  
2.61868653       5.75489590E-06  
2.62003776       6.24477365E-06  
2.62138899       6.09230300E-06  
2.62274022       6.13934691E-06  
2.62409145       6.83377982E-06  
2.62544268       7.26854234E-06  
2.62679392       7.37219641E-06  
2.62814515       7.72660976E-06  
2.62949638       7.61696254E-06  
2.63084761       7.39864026E-06  
2.63219884       7.28562895E-06  
2.63355007       7.08905803E-06  
2.63490131       6.71696984E-06  
2.63625254       6.51310436E-06  
2.63760377       6.47675690E-06  
2.63895500       6.37929616E-06  
2.64030623       6.03449985E-06  
2.64165746       5.79340294E-06  
2.64300869       5.62877088E-06  
2.64435993       5.52255510E-06  
2.64571116       5.44647423E-06  
2.64706239       5.34105017E-06  
2.64841362       5.16232534E-06  
2.64976485       5.08592401E-06  
2.65111608       4.99340075E-06  
2.65246731       4.80451777E-06  
2.65381855       4.67829359E-06  
2.65516978       4.57286494E-06  
2.65652101       4.03026159E-06  
2.65787224       3.80816845E-06  
2.65922347       4.29531077E-06  
2.66057470       4.40577062E-06  
2.66192593       4.46470808E-06  
2.66327717       4.83513643E-06  
2.66462840       5.16950902E-06  
2.66597963       5.37732091E-06  
2.66733086       5.95317832E-06  
2.66868209       6.24524765E-06  
2.67003332       5.47364890E-06  
2.67138455       4.96090135E-06  
2.67273579       4.91896452E-06  
2.67408702       4.45795695E-06  
2.67543825       3.84474557E-06  
2.67678948       3.31826810E-06  
2.67814071       2.96767813E-06  
2.67949194       2.38828074E-06  
2.68084317       2.17731616E-06  
2.68219441       2.06671743E-06  
2.68354564       1.65596879E-06  
2.68489687       1.57545976E-06  
2.68624810       1.71775340E-06  
2.68759933       1.89038751E-06  
2.68895056       1.75871587E-06  
2.69030179       1.61354501E-06  
2.69165303       1.54179735E-06  
2.69300426       1.72392455E-06  
2.69435549       1.58901005E-06  
2.69570672       1.32586052E-06  
2.69705795       1.27211037E-06  
2.69840918       1.12040280E-06  
2.69976041       1.07297589E-06  
2.70111165       1.31092532E-06  
2.70246288       1.30082045E-06  
2.70381411       9.85091702E-07  
2.70516534       9.38324701E-07  
2.70651657       9.29100311E-07  
2.70786780       7.01482116E-07  
2.70921904       5.92258389E-07  
2.71057027       4.36995170E-07  
2.71192150       2.12311466E-07  
2.71327273       2.12303178E-07  
2.71462396       2.10513403E-07  
2.71597519       4.96205443E-07  
2.71732642       4.92059171E-07  
2.71867766       5.47509139E-07  
2.72002889       5.47030272E-07  
2.72138012       5.62740090E-07  
2.72273135       5.63915210E-07  
2.72408258       5.63453016E-07  
2.72543381       4.77122137E-07  
2.72678504       1.25471879E-07  
2.72813627       1.25238198E-07  
2.72948751       7.24996015E-08  
2.73083874       1.49239850E-07  
2.73218997       3.11276145E-07  
2.73354120       2.99607997E-07  
2.73489243       3.07182265E-07  
2.73624366       3.07269964E-07  
2.73759489       3.45084239E-07  
2.73894613       4.60241577E-07  
2.74029736       4.57266018E-07  
2.74164859       5.16662127E-07  
2.74299982       3.40198834E-07  
2.74435105       3.38208333E-07  
2.74570228       3.30551698E-07  
2.74705352       4.30901902E-07  
2.74840475       4.29854974E-07  
2.74975598       5.73713629E-07  
2.75110721       7.97825208E-07  
2.75245844       7.27836291E-07  
2.75380967       7.25108041E-07  
2.75516090       7.97285061E-07  
2.75651213       9.43429059E-07  
2.75786337       9.44561025E-07  
2.75921460       1.02719782E-06  
2.76056583       8.05328364E-07  
2.76191706       7.95395202E-07  
2.76326829       1.15269382E-06  
2.76461952       1.35339955E-06  
2.76597075       1.44458264E-06  
2.76732199       1.57407763E-06  
2.76867322       1.71388481E-06  
2.77002445       1.84047594E-06  
2.77137568       1.80421026E-06  
2.77272691       1.59758595E-06  
2.77407814       1.26883553E-06  
2.77542938       1.27706451E-06  
2.77678061       1.41768504E-06  
2.77813184       1.30794113E-06  
2.77948307       1.36087908E-06  
2.78083430       1.29092124E-06  
2.78218553       1.45876312E-06  
2.78353676       1.85501081E-06  
2.78488800       2.09075715E-06  
2.78623923       2.05927726E-06  
2.78759046       2.04019609E-06  
2.78894169       2.10746760E-06  
2.79029292       2.11291003E-06  
2.79164415       2.36151290E-06  
2.79299538       2.61402972E-06  
2.79434661       2.59985692E-06  
2.79569785       2.72865448E-06  
2.79704908       2.96272057E-06  
2.79840031       3.26346310E-06  
2.79975154       3.50883944E-06  
2.80110277       3.44887874E-06  
2.80245400       3.16479200E-06  
2.80380524       2.95652698E-06  
2.80515647       2.88446031E-06  
2.80650770       2.68899545E-06  
2.80785893       2.65048003E-06  
2.80921016       2.31906830E-06  
2.81056139       2.21720842E-06  
2.81191262       2.39415687E-06  
2.81326386       2.58982557E-06  
2.81461509       2.80700925E-06  
2.81596632       2.77145391E-06  
2.81731755       2.68401484E-06  
2.81866878       2.55474479E-06  
2.82002001       2.83982658E-06  
2.82137124       2.87969423E-06  
2.82272247       2.94156276E-06  
2.82407371       2.87248869E-06  
2.82542494       2.91518968E-06  
2.82677617       3.20831533E-06  
2.82812740       3.35704612E-06  
2.82947863       3.51361154E-06  
2.83082986       3.37812798E-06  
2.83218109       3.22012874E-06  
2.83353233       3.01447923E-06  
2.83488356       2.93099783E-06  
2.83623479       2.62131820E-06  
2.83758602       2.49794276E-06  
2.83893725       2.55649133E-06  
2.84028848       2.66013335E-06  
2.84163972       2.73021959E-06  
2.84299095       3.05383690E-06  
2.84434218       3.30648737E-06  
2.84569341       3.57374966E-06  
2.84704464       3.83104425E-06  
2.84839587       3.39988567E-06  
2.84974710       3.24661567E-06  
2.85109834       3.39923495E-06  
2.85244957       3.49449845E-06  
2.85380080       3.11876173E-06  
2.85515203       2.79513875E-06  
2.85650326       2.68759535E-06  
2.85785449       2.52775042E-06  
2.85920572       2.67844230E-06  
2.86055696       2.80998673E-06  
2.86190819       2.45314914E-06  
2.86325942       1.97424230E-06  
2.86461065       1.85995813E-06  
2.86596188       2.15406504E-06  
2.86731311       2.09727323E-06  
2.86866434       1.98535762E-06  
2.87001558       2.05477799E-06  
2.87136681       1.85192547E-06  
2.87271804       1.68219549E-06  
2.87406927       1.87610738E-06  
2.87542050       1.88098718E-06  
2.87677173       1.58982179E-06  
2.87812296       1.48113536E-06  
2.87947420       1.66349664E-06  
2.88082543       1.79741358E-06  
2.88217666       1.92056787E-06  
2.88352789       2.06207492E-06  
2.88487912       2.18446510E-06  
2.88623035       2.53182084E-06  
2.88758158       2.72154835E-06  
2.88893282       2.71306798E-06  
2.89028405       2.86373242E-06  
2.89163528       2.84790833E-06  
2.89298651       2.78144917E-06  
2.89433774       2.60850024E-06  
2.89568897       2.50206090E-06  
2.89704020       2.53410578E-06  
2.89839144       2.57898971E-06  
2.89974267       3.40141107E-06  
2.90109390       3.82855999E-06  
2.90244513       3.93576575E-06  
2.90379636       4.35072342E-06  
2.90514759       4.89405381E-06  
2.90649883       5.32364954E-06  
2.90785006       5.44933451E-06  
2.90920129       5.52228521E-06  
2.91055252       5.18832600E-06  
2.91190375       5.14980834E-06  
2.91325498       5.86011263E-06  
2.91460621       6.41627641E-06  
2.91595745       6.86596792E-06  
2.91730868       7.17638924E-06  
2.91865991       7.69074079E-06  
2.92001114       8.10448502E-06  
2.92136237       8.40569321E-06  
2.92271360       8.68921753E-06  
2.92406483       8.63669198E-06  
2.92541606       8.79573306E-06  
2.92676730       9.08202673E-06  
2.92811853       9.43853270E-06  
2.92946976       9.57482374E-06  
2.93082099       1.00060902E-05  
2.93217222       1.03934692E-05  
2.93352345       1.06120928E-05  
2.93487469       1.05019106E-05  
2.93622592       1.02939767E-05  
2.93757715       1.02780462E-05  
2.93892838       1.01479788E-05  
2.94027961       1.03996388E-05  
2.94163084       1.07106372E-05  
2.94298207       1.08148083E-05  
2.94433331       1.09304126E-05  
2.94568454       1.13137004E-05  
2.94703577       1.15929711E-05  
2.94838700       1.18253704E-05  
2.94973823       1.27825975E-05  
2.95108946       1.35940117E-05  
2.95244069       1.42971633E-05  
2.95379192       1.49633187E-05  
2.95514316       1.57250612E-05  
2.95649439       1.66249946E-05  
2.95784562       1.74656147E-05  
2.95919685       1.86635087E-05  
2.96054808       1.95081468E-05  
2.96189931       2.06776400E-05  
2.96325054       2.20041806E-05  
2.96460178       2.37015449E-05  
2.96595301       2.53981892E-05  
2.96730424       2.76933760E-05  
2.96865547       3.01648579E-05  
2.97000670       3.21514703E-05  
2.97135793       3.45959238E-05  
2.97270917       3.69334464E-05  
2.97406040       3.91398162E-05  
2.97541163       4.15500290E-05  
2.97676286       4.41537248E-05  
