# F480M filter 
# Wavelength [microns]  |  Transmission efficiency
4.57000000       1.05015188E-03  
4.57094188       1.10099538E-03  
4.57188377       1.14774185E-03  
4.57282565       1.19100784E-03  
4.57376754       1.23156755E-03  
4.57470942       1.26902442E-03  
4.57565130       1.30466366E-03  
4.57659319       1.33933130E-03  
4.57753507       1.37394120E-03  
4.57847695       1.40935815E-03  
4.57941884       1.44643671E-03  
4.58036072       1.48569325E-03  
4.58130261       1.52741855E-03  
4.58224449       1.57304064E-03  
4.58318637       1.62359347E-03  
4.58412826       1.67799663E-03  
4.58507014       1.73698989E-03  
4.58601202       1.80027164E-03  
4.58695391       1.87140046E-03  
4.58789579       1.94754361E-03  
4.58883768       2.02844289E-03  
4.58977956       2.11536059E-03  
4.59072144       2.20865324E-03  
4.59166333       2.30786085E-03  
4.59260521       2.41223836E-03  
4.59354709       2.52251686E-03  
4.59448898       2.63904314E-03  
4.59543086       2.76103191E-03  
4.59637275       2.88722885E-03  
4.59731463       3.01779073E-03  
4.59825651       3.15403518E-03  
4.59919840       3.29392923E-03  
4.60014028       3.43697465E-03  
4.60108216       3.58212086E-03  
4.60202405       3.73126494E-03  
4.60296593       3.88132942E-03  
4.60390782       4.03224331E-03  
4.60484970       4.18407360E-03  
4.60579158       4.33584762E-03  
4.60673347       4.48646551E-03  
4.60767535       4.63602014E-03  
4.60861723       4.78449666E-03  
4.60955912       4.93070781E-03  
4.61050100       5.07477837E-03  
4.61144289       5.21678882E-03  
4.61238477       5.35648232E-03  
4.61332665       5.49374678E-03  
4.61426854       5.62803352E-03  
4.61521042       5.76049168E-03  
4.61615230       5.89199317E-03  
4.61709419       6.02264968E-03  
4.61803607       6.15272139E-03  
4.61897796       6.28388963E-03  
4.61991984       6.41507607E-03  
4.62086172       6.54853454E-03  
4.62180361       6.68481356E-03  
4.62274549       6.82456701E-03  
4.62368737       6.96818717E-03  
4.62462926       7.11851613E-03  
4.62557114       7.27564679E-03  
4.62651303       7.43999040E-03  
4.62745491       7.61182089E-03  
4.62839679       7.79405254E-03  
4.62933868       7.98948204E-03  
4.63028056       8.19605563E-03  
4.63122244       8.41419326E-03  
4.63216433       8.64561142E-03  
4.63310621       8.89683451E-03  
4.63404810       9.16307732E-03  
4.63498998       9.44701605E-03  
4.63593186       9.75007514E-03  
4.63687375       1.00802698E-02  
4.63781563       1.04306417E-02  
4.63875752       1.08020546E-02  
4.63969940       1.12003428E-02  
4.64064128       1.16298999E-02  
4.64158317       1.20891124E-02  
4.64252505       1.25754282E-02  
4.64346693       1.30945322E-02  
4.64440882       1.36519576E-02  
4.64535070       1.42457527E-02  
4.64629259       1.48735069E-02  
4.64723447       1.55392966E-02  
4.64817635       1.62548501E-02  
4.64911824       1.70131793E-02  
4.65006012       1.78119647E-02  
4.65100200       1.86494133E-02  
4.65194389       1.95526953E-02  
4.65288577       2.05019832E-02  
4.65382766       2.15012932E-02  
4.65476954       2.25415365E-02  
4.65571142       2.36441658E-02  
4.65665331       2.47999458E-02  
4.65759519       2.59998577E-02  
4.65853707       2.72466007E-02  
4.65947896       2.85501819E-02  
4.66042084       2.99074161E-02  
4.66136273       3.13058573E-02  
4.66230461       3.27443691E-02  
4.66324649       3.42289934E-02  
4.66418838       3.57578263E-02  
4.66513026       3.73234129E-02  
4.66607214       3.89106255E-02  
4.66701403       4.05266498E-02  
4.66795591       4.21740371E-02  
4.66889780       4.38292287E-02  
4.66983968       4.54984847E-02  
4.67078156       4.71732050E-02  
4.67172345       4.88480909E-02  
4.67266533       5.05231673E-02  
4.67360721       5.21955491E-02  
4.67454910       5.38536977E-02  
4.67549098       5.54866566E-02  
4.67643287       5.70933687E-02  
4.67737475       5.86786031E-02  
4.67831663       6.02349609E-02  
4.67925852       6.17496437E-02  
4.68020040       6.32324767E-02  
4.68114228       6.46748335E-02  
4.68208417       6.60861984E-02  
4.68302605       6.74365510E-02  
4.68396794       6.87429566E-02  
4.68490982       7.00058851E-02  
4.68585170       7.12136787E-02  
4.68679359       7.23604783E-02  
4.68773547       7.34649601E-02  
4.68867735       7.45288014E-02  
4.68961924       7.55315174E-02  
4.69056112       7.64748979E-02  
4.69150301       7.73634888E-02  
4.69244489       7.82000815E-02  
4.69338677       7.89867612E-02  
4.69432866       7.97148882E-02  
4.69527054       8.03801045E-02  
4.69621242       8.10023890E-02  
4.69715431       8.15891877E-02  
4.69809619       8.20934589E-02  
4.69903808       8.25432882E-02  
4.69997996       8.29545650E-02  
4.70092184       8.33099583E-02  
4.70186373       8.36039011E-02  
4.70280561       8.38578862E-02  
4.70374749       8.40730546E-02  
4.70468938       8.42422958E-02  
4.70563126       8.43594766E-02  
4.70657315       8.44512554E-02  
4.70751503       8.45064301E-02  
4.70845691       8.45182786E-02  
4.70939880       8.44957087E-02  
4.71034068       8.44443242E-02  
4.71128257       8.43731240E-02  
4.71222445       8.42734719E-02  
4.71316633       8.41512786E-02  
4.71410822       8.40084906E-02  
4.71505010       8.38600179E-02  
4.71599198       8.37052277E-02  
4.71693387       8.35219299E-02  
4.71787575       8.33281256E-02  
4.71881764       8.31352246E-02  
4.71975952       8.29303968E-02  
4.72070140       8.27192100E-02  
4.72164329       8.25053097E-02  
4.72258517       8.22903572E-02  
4.72352705       8.20848053E-02  
4.72446894       8.18873235E-02  
4.72541082       8.16846134E-02  
4.72635271       8.14756900E-02  
4.72729459       8.12701486E-02  
4.72823647       8.10693880E-02  
4.72917836       8.08766805E-02  
4.73012024       8.06954363E-02  
4.73106212       8.05120883E-02  
4.73200401       8.03342819E-02  
4.73294589       8.01655405E-02  
4.73388778       8.00174176E-02  
4.73482966       7.98628397E-02  
4.73577154       7.97130981E-02  
4.73671343       7.95781265E-02  
4.73765531       7.94453226E-02  
4.73859719       7.93150743E-02  
4.73953908       7.91905138E-02  
4.74048096       7.90725473E-02  
4.74142285       7.89673420E-02  
4.74236473       7.88722562E-02  
4.74330661       7.87750451E-02  
4.74424850       7.86781603E-02  
4.74519038       7.85861195E-02  
4.74613226       7.84981162E-02  
4.74707415       7.84143666E-02  
4.74801603       7.83364813E-02  
4.74895792       7.82726890E-02  
4.74989980       7.82053218E-02  
4.75084168       7.81557042E-02  
4.75178357       7.81016766E-02  
4.75272545       7.80512802E-02  
4.75366733       7.80066860E-02  
4.75460922       7.79677547E-02  
4.75555110       7.79369641E-02  
4.75649299       7.79141445E-02  
4.75743487       7.78979158E-02  
4.75837675       7.78884767E-02  
4.75931864       7.78875855E-02  
4.76026052       7.79010781E-02  
4.76120240       7.79303486E-02  
4.76214429       7.79558798E-02  
4.76308617       7.79915272E-02  
4.76402806       7.80443735E-02  
4.76496994       7.80898913E-02  
4.76591182       7.81519691E-02  
4.76685371       7.82245100E-02  
4.76779559       7.83075850E-02  
4.76873747       7.83991334E-02  
4.76967936       7.84987358E-02  
4.77062124       7.86173985E-02  
4.77156313       7.87416041E-02  
4.77250501       7.88680001E-02  
4.77344689       7.90018490E-02  
4.77438878       7.91440799E-02  
4.77533066       7.92921185E-02  
4.77627255       7.94442533E-02  
4.77721443       7.96088079E-02  
4.77815631       7.97799561E-02  
4.77909820       7.99591953E-02  
4.78004008       8.01442825E-02  
4.78098196       8.03330826E-02  
4.78192385       8.05262993E-02  
4.78286573       8.07169261E-02  
4.78380762       8.09304615E-02  
4.78474950       8.11375077E-02  
4.78569138       8.13433860E-02  
4.78663327       8.15510377E-02  
4.78757515       8.17536408E-02  
4.78851703       8.19571672E-02  
4.78945892       8.21636581E-02  
4.79040080       8.23681059E-02  
4.79134269       8.25666040E-02  
4.79228457       8.27593784E-02  
4.79322645       8.29553096E-02  
4.79416834       8.31482534E-02  
4.79511022       8.33402450E-02  
4.79605210       8.35128940E-02  
4.79699399       8.36891114E-02  
4.79793587       8.38577453E-02  
4.79887776       8.40199346E-02  
4.79981964       8.41687052E-02  
4.80076152       8.43187185E-02  
4.80170341       8.44625206E-02  
4.80264529       8.45925572E-02  
4.80358717       8.47189257E-02  
4.80452906       8.48423759E-02  
4.80547094       8.49533854E-02  
4.80641283       8.50561206E-02  
4.80735471       8.51578816E-02  
4.80829659       8.52503674E-02  
4.80923848       8.53314155E-02  
4.81018036       8.54105273E-02  
4.81112224       8.54797709E-02  
4.81206413       8.55286410E-02  
4.81300601       8.55868508E-02  
4.81394790       8.56266867E-02  
4.81488978       8.56686859E-02  
4.81583166       8.56901637E-02  
4.81677355       8.57078957E-02  
4.81771543       8.57253710E-02  
4.81865731       8.57314376E-02  
4.81959920       8.57342958E-02  
4.82054108       8.57337995E-02  
4.82148297       8.57206563E-02  
4.82242485       8.56997937E-02  
4.82336673       8.56741626E-02  
4.82430862       8.56386931E-02  
4.82525050       8.55987763E-02  
4.82619238       8.55471167E-02  
4.82713427       8.54957408E-02  
4.82807615       8.54295651E-02  
4.82901804       8.53479961E-02  
4.82995992       8.52668514E-02  
4.83090180       8.51879641E-02  
4.83184369       8.50951733E-02  
4.83278557       8.50004895E-02  
4.83372745       8.48940221E-02  
4.83466934       8.47861482E-02  
4.83561122       8.46684700E-02  
4.83655311       8.45399966E-02  
4.83749499       8.44095773E-02  
4.83843687       8.42660975E-02  
4.83937876       8.41133838E-02  
4.84032064       8.39660769E-02  
4.84126253       8.38061016E-02  
4.84220441       8.36429627E-02  
4.84314629       8.34804740E-02  
4.84408818       8.33056462E-02  
4.84503006       8.31335681E-02  
4.84597194       8.29491567E-02  
4.84691383       8.27614713E-02  
4.84785571       8.25784414E-02  
4.84879760       8.23661505E-02  
4.84973948       8.21661864E-02  
4.85068136       8.19779046E-02  
4.85162325       8.17862330E-02  
4.85256513       8.15923472E-02  
4.85350701       8.14045429E-02  
4.85444890       8.12179195E-02  
4.85539078       8.10292461E-02  
4.85633267       8.08475023E-02  
4.85727455       8.06677907E-02  
4.85821643       8.04782355E-02  
4.85915832       8.03051352E-02  
4.86010020       8.01395424E-02  
4.86104208       7.99858298E-02  
4.86198397       7.98289540E-02  
4.86292585       7.96788955E-02  
4.86386774       7.95371733E-02  
4.86480962       7.94096313E-02  
4.86575150       7.92829673E-02  
4.86669339       7.91511806E-02  
4.86763527       7.90342876E-02  
4.86857715       7.89355934E-02  
4.86951904       7.88430061E-02  
4.87046092       7.87547475E-02  
4.87140281       7.86759979E-02  
4.87234469       7.86065248E-02  
4.87328657       7.85471938E-02  
4.87422846       7.84999447E-02  
4.87517034       7.84524224E-02  
4.87611222       7.83981104E-02  
4.87705411       7.83713013E-02  
4.87799599       7.83520410E-02  
4.87893788       7.83450882E-02  
4.87987976       7.83451688E-02  
4.88082164       7.83599011E-02  
4.88176353       7.83753369E-02  
4.88270541       7.83976343E-02  
4.88364729       7.84264418E-02  
4.88458918       7.84606441E-02  
4.88553106       7.85001992E-02  
4.88647295       7.85376271E-02  
4.88741483       7.85786779E-02  
4.88835671       7.86314682E-02  
4.88929860       7.86874039E-02  
4.89024048       7.87465354E-02  
4.89118236       7.88104738E-02  
4.89212425       7.88822228E-02  
4.89306613       7.89481119E-02  
4.89400802       7.90154795E-02  
4.89494990       7.90839908E-02  
4.89589178       7.91531710E-02  
4.89683367       7.92230616E-02  
4.89777555       7.92939826E-02  
4.89871743       7.93654227E-02  
4.89965932       7.94370299E-02  
4.90060120       7.95085554E-02  
4.90154309       7.95798028E-02  
4.90248497       7.96509040E-02  
4.90342685       7.97220580E-02  
4.90436874       7.97932938E-02  
4.90531062       7.98593446E-02  
4.90625251       7.99162531E-02  
4.90719439       7.99788495E-02  
4.90813627       8.00471898E-02  
4.90907816       8.01140377E-02  
4.91002004       8.01789259E-02  
4.91096192       8.02422887E-02  
4.91190381       8.03034997E-02  
4.91284569       8.03619401E-02  
4.91378758       8.04156129E-02  
4.91472946       8.04646872E-02  
4.91567134       8.05092803E-02  
4.91661323       8.05485606E-02  
4.91755511       8.05805230E-02  
4.91849699       8.06004083E-02  
4.91943888       8.06204161E-02  
4.92038076       8.06375674E-02  
4.92132265       8.06326593E-02  
4.92226453       8.06151117E-02  
4.92320641       8.05861482E-02  
4.92414830       8.05440617E-02  
4.92509018       8.04824537E-02  
4.92603206       8.03965604E-02  
4.92697395       8.03011205E-02  
4.92791583       8.01855949E-02  
4.92885772       8.00425318E-02  
4.92979960       7.98745609E-02  
4.93074148       7.96760715E-02  
4.93168337       7.94586924E-02  
4.93262525       7.92100229E-02  
4.93356713       7.89283195E-02  
4.93450902       7.86171112E-02  
4.93545090       7.82720293E-02  
4.93639279       7.78868032E-02  
4.93733467       7.74635526E-02  
4.93827655       7.70088154E-02  
4.93921844       7.65183518E-02  
4.94016032       7.59817815E-02  
4.94110220       7.54062431E-02  
4.94204409       7.47969544E-02  
4.94298597       7.41522748E-02  
4.94392786       7.34519553E-02  
4.94486974       7.27192144E-02  
4.94581162       7.19530603E-02  
4.94675351       7.11469924E-02  
4.94769539       7.03078961E-02  
4.94863727       6.94332512E-02  
4.94957916       6.85224328E-02  
4.95052104       6.75853373E-02  
4.95146293       6.66216672E-02  
4.95240481       6.56298546E-02  
4.95334669       6.46139765E-02  
4.95428858       6.35750882E-02  
4.95523046       6.25130669E-02  
4.95617234       6.14180958E-02  
4.95711423       6.03135375E-02  
4.95805611       5.91940893E-02  
4.95899800       5.80550772E-02  
4.95993988       5.69036609E-02  
4.96088176       5.57384056E-02  
4.96182365       5.45685226E-02  
4.96276553       5.33880707E-02  
4.96370741       5.21948660E-02  
4.96464930       5.09976263E-02  
4.96559118       4.97930313E-02  
4.96653307       4.85863002E-02  
4.96747495       4.73787768E-02  
4.96841683       4.61671654E-02  
4.96935872       4.49527359E-02  
4.97030060       4.37358563E-02  
4.97124248       4.25164039E-02  
4.97218437       4.13007951E-02  
4.97312625       4.00898731E-02  
4.97406814       3.88786520E-02  
4.97501002       3.76644850E-02  
4.97595190       3.64596528E-02  
4.97689379       3.52542940E-02  
4.97783567       3.40564562E-02  
4.97877756       3.28678226E-02  
4.97971944       3.16854814E-02  
4.98066132       3.05115283E-02  
4.98160321       2.93485058E-02  
4.98254509       2.81996127E-02  
4.98348697       2.70652031E-02  
4.98442886       2.59430905E-02  
4.98537074       2.48362262E-02  
4.98631263       2.37499711E-02  
4.98725451       2.26855358E-02  
4.98819639       2.16432282E-02  
4.98913828       2.06200227E-02  
4.99008016       1.96225295E-02  
4.99102204       1.86535328E-02  
4.99196393       1.77126283E-02  
4.99290581       1.67984609E-02  
4.99384770       1.59124360E-02  
4.99478958       1.50637504E-02  
4.99573146       1.42428499E-02  
4.99667335       1.34498210E-02  
4.99761523       1.26906947E-02  
4.99855711       1.19663276E-02  
4.99949900       1.12733931E-02  
5.00044088       1.06089443E-02  
5.00138277       9.97727621E-03  
5.00232465       9.38154757E-03  
5.00326653       8.81446717E-03  
5.00420842       8.27387068E-03  
5.00515030       7.76164613E-03  
5.00609218       7.28316237E-03  
5.00703407       6.83040821E-03  
5.00797595       6.40147626E-03  
5.00891784       5.99724305E-03  
5.00985972       5.62432452E-03  
5.01080160       5.27210073E-03  
5.01174349       4.93921638E-03  
5.01268537       4.62565096E-03  
5.01362725       4.33498060E-03  
5.01456914       4.06314518E-03  
5.01551102       3.80752372E-03  
5.01645291       3.56820198E-03  
5.01739479       3.34576713E-03  
5.01833667       3.13890507E-03  
5.01927856       2.94383899E-03  
5.02022044       2.76055917E-03  
5.02116232       2.59099731E-03  
5.02210421       2.43372082E-03  
5.02304609       2.28613069E-03  
5.02398798       2.14739780E-03  
5.02492986       2.02028464E-03  
5.02587174       1.90158187E-03  
5.02681363       1.78968574E-03  
5.02775551       1.68431965E-03  
5.02869739       1.58704774E-03  
5.02963928       1.49668373E-03  
5.03058116       1.41193817E-03  
5.03152305       1.33220068E-03  
5.03246493       1.25814637E-03  
5.03340681       1.18928725E-03  
5.03434870       1.12406435E-03  
5.03529058       1.06246628E-03  
5.03623246       1.00507116E-03  
5.03717435       9.52421139E-04  
5.03811623       9.02865744E-04  
5.03905812       8.56027883E-04  
5.04000000       8.12076737E-04  
