# F277W filter 
# Wavelength [microns]  |  Transmission efficiency
2.37000000       1.05010971E-03  
2.37172345       1.35380447E-03  
2.37344689       1.72339335E-03  
2.37517034       2.15459410E-03  
2.37689379       2.63676903E-03  
2.37861723       3.15771938E-03  
2.38034068       3.69955371E-03  
2.38206413       4.24644064E-03  
2.38378758       4.79275063E-03  
2.38551102       5.34081458E-03  
2.38723447       5.90569127E-03  
2.38895792       6.50920096E-03  
2.39068136       7.19089993E-03  
2.39240481       7.99382648E-03  
2.39412826       8.95457127E-03  
2.39585170       1.01303393E-02  
2.39757515       1.16236824E-02  
2.39929860       1.34947190E-02  
2.40102204       1.58111322E-02  
2.40274549       1.87583234E-02  
2.40446894       2.24789141E-02  
2.40619238       2.70121596E-02  
2.40791583       3.24526995E-02  
2.40963928       3.89404978E-02  
2.41136273       4.61742020E-02  
2.41308617       5.38746461E-02  
2.41480962       6.16309900E-02  
2.41653307       6.88448102E-02  
2.41825651       7.51500771E-02  
2.41997996       8.02781953E-02  
2.42170341       8.38382621E-02  
2.42342685       8.61683785E-02  
2.42515030       8.75081133E-02  
2.42687375       8.80889237E-02  
2.42859719       8.82018444E-02  
2.43032064       8.81505037E-02  
2.43204409       8.80879574E-02  
2.43376754       8.81311221E-02  
2.43549098       8.83164061E-02  
2.43721443       8.86435641E-02  
2.43893788       8.91097738E-02  
2.44066132       8.96840447E-02  
2.44238477       9.03137146E-02  
2.44410822       9.09665187E-02  
2.44583166       9.16069706E-02  
2.44755511       9.21986526E-02  
2.44927856       9.27436478E-02  
2.45100200       9.32382252E-02  
2.45272545       9.36600011E-02  
2.45444890       9.40511547E-02  
2.45617234       9.44200273E-02  
2.45789579       9.47761790E-02  
2.45961924       9.51376304E-02  
2.46134269       9.54860127E-02  
2.46306613       9.58650650E-02  
2.46478958       9.62760518E-02  
2.46651303       9.67146445E-02  
2.46823647       9.71688861E-02  
2.46995992       9.76250067E-02  
2.47168337       9.81244657E-02  
2.47340681       9.86163224E-02  
2.47513026       9.90662728E-02  
2.47685371       9.95014599E-02  
2.47857715       9.98801589E-02  
2.48030060       1.00198820E-01  
2.48202405       1.00470265E-01  
2.48374749       1.00677748E-01  
2.48547094       1.00816411E-01  
2.48719439       1.00885439E-01  
2.48891784       1.00912594E-01  
2.49064128       1.00900025E-01  
2.49236473       1.00822522E-01  
2.49408818       1.00719529E-01  
2.49581162       1.00610120E-01  
2.49753507       1.00498526E-01  
2.49925852       1.00361411E-01  
2.50098196       1.00237283E-01  
2.50270541       1.00116529E-01  
2.50442886       9.99849605E-02  
2.50615230       9.98633781E-02  
2.50787575       9.97516791E-02  
2.50959920       9.96498791E-02  
2.51132265       9.95599813E-02  
2.51304609       9.94637318E-02  
2.51476954       9.93809379E-02  
2.51649299       9.92830745E-02  
2.51821643       9.91907051E-02  
2.51993988       9.90952752E-02  
2.52166333       9.90099501E-02  
2.52338677       9.89362758E-02  
2.52511022       9.88775684E-02  
2.52683367       9.88162803E-02  
2.52855711       9.87760818E-02  
2.53028056       9.87689029E-02  
2.53200401       9.87882177E-02  
2.53372745       9.88569197E-02  
2.53545090       9.89403888E-02  
2.53717435       9.90656178E-02  
2.53889780       9.92113165E-02  
2.54062124       9.94088911E-02  
2.54234469       9.96313319E-02  
2.54406814       9.98810152E-02  
2.54579158       1.00172850E-01  
2.54751503       1.00499253E-01  
2.54923848       1.00831356E-01  
2.55096192       1.01201586E-01  
2.55268537       1.01561495E-01  
2.55440882       1.01937365E-01  
2.55613226       1.02323058E-01  
2.55785571       1.02716172E-01  
2.55957916       1.03119903E-01  
2.56130261       1.03502989E-01  
2.56302605       1.03866010E-01  
2.56474950       1.04173035E-01  
2.56647295       1.04461079E-01  
2.56819639       1.04700972E-01  
2.56991984       1.04923180E-01  
2.57164329       1.05152147E-01  
2.57336673       1.05359884E-01  
2.57509018       1.05529674E-01  
2.57681363       1.05652598E-01  
2.57853707       1.05788164E-01  
2.58026052       1.05926448E-01  
2.58198397       1.06076613E-01  
2.58370741       1.06174749E-01  
2.58543086       1.06299252E-01  
2.58715431       1.06366796E-01  
2.58887776       1.06442633E-01  
2.59060120       1.06587552E-01  
2.59232465       1.06800801E-01  
2.59404810       1.06882767E-01  
2.59577154       1.06942397E-01  
2.59749499       1.07022368E-01  
2.59921844       1.07052501E-01  
2.60094188       1.07005543E-01  
2.60266533       1.07036457E-01  
2.60438878       1.07089555E-01  
2.60611222       1.07141388E-01  
2.60783567       1.07151443E-01  
2.60955912       1.07122384E-01  
2.61128257       1.07037100E-01  
2.61300601       1.06991763E-01  
2.61472946       1.06958028E-01  
2.61645291       1.06946120E-01  
2.61817635       1.06907473E-01  
2.61989980       1.06809574E-01  
2.62162325       1.06689890E-01  
2.62334669       1.06563600E-01  
2.62507014       1.06442388E-01  
2.62679359       1.06319034E-01  
2.62851703       1.06222334E-01  
2.63024048       1.06132523E-01  
2.63196393       1.05983852E-01  
2.63368737       1.05814924E-01  
2.63541082       1.05664359E-01  
2.63713427       1.05477183E-01  
2.63885772       1.05357967E-01  
2.64058116       1.05273392E-01  
2.64230461       1.05221908E-01  
2.64402806       1.05180273E-01  
2.64575150       1.05151983E-01  
2.64747495       1.05136076E-01  
2.64919840       1.05153551E-01  
2.65092184       1.05169714E-01  
2.65264529       1.05199335E-01  
2.65436874       1.05236469E-01  
2.65609218       1.05305067E-01  
2.65781563       1.05366599E-01  
2.65953908       1.05441866E-01  
2.66126253       1.05588119E-01  
2.66298597       1.05779901E-01  
2.66470942       1.05936223E-01  
2.66643287       1.06134990E-01  
2.66815631       1.06320825E-01  
2.66987976       1.06397719E-01  
2.67160321       1.06413129E-01  
2.67332665       1.06481190E-01  
2.67505010       1.06589000E-01  
2.67677355       1.06580398E-01  
2.67849699       1.06639301E-01  
2.68022044       1.06747604E-01  
2.68194389       1.06813055E-01  
2.68366733       1.06853948E-01  
2.68539078       1.06886131E-01  
2.68711423       1.06937680E-01  
2.68883768       1.07009973E-01  
2.69056112       1.07080957E-01  
2.69228457       1.07151714E-01  
2.69400802       1.07193543E-01  
2.69573146       1.07240530E-01  
2.69745491       1.07270876E-01  
2.69917836       1.07283521E-01  
2.70090180       1.07271127E-01  
2.70262525       1.07306049E-01  
2.70434870       1.07381046E-01  
2.70607214       1.07491865E-01  
2.70779559       1.07637821E-01  
2.70951904       1.07727611E-01  
2.71124248       1.07775712E-01  
2.71296593       1.07814264E-01  
2.71468938       1.07841364E-01  
2.71641283       1.07883854E-01  
2.71813627       1.07933937E-01  
2.71985972       1.08010581E-01  
2.72158317       1.08111775E-01  
2.72330661       1.08153783E-01  
2.72503006       1.08138794E-01  
2.72675351       1.08026260E-01  
2.72847695       1.07953152E-01  
2.73020040       1.07883343E-01  
2.73192385       1.07830363E-01  
2.73364729       1.07826263E-01  
2.73537074       1.07870565E-01  
2.73709419       1.07949785E-01  
2.73881764       1.07969426E-01  
2.74054108       1.07889468E-01  
2.74226453       1.07818845E-01  
2.74398798       1.07753601E-01  
2.74571142       1.07590315E-01  
2.74743487       1.07445516E-01  
2.74915832       1.07347779E-01  
2.75088176       1.07347394E-01  
2.75260521       1.07357285E-01  
2.75432866       1.07326273E-01  
2.75605210       1.07254675E-01  
2.75777555       1.07201914E-01  
2.75949900       1.07159991E-01  
2.76122244       1.07061721E-01  
2.76294589       1.06980050E-01  
2.76466934       1.06960477E-01  
2.76639279       1.06967788E-01  
2.76811623       1.06957841E-01  
2.76983968       1.06923587E-01  
2.77156313       1.06892901E-01  
2.77328657       1.06862293E-01  
2.77501002       1.06853845E-01  
2.77673347       1.06820069E-01  
2.77845691       1.06809257E-01  
2.78018036       1.06846472E-01  
2.78190381       1.06895413E-01  
2.78362725       1.06965621E-01  
2.78535070       1.07024167E-01  
2.78707415       1.07063260E-01  
2.78879760       1.07087634E-01  
2.79052104       1.07126096E-01  
2.79224449       1.07107684E-01  
2.79396794       1.07100668E-01  
2.79569138       1.07102116E-01  
2.79741483       1.07097334E-01  
2.79913828       1.07140211E-01  
2.80086172       1.07146647E-01  
2.80258517       1.07120697E-01  
2.80430862       1.07080312E-01  
2.80603206       1.07018454E-01  
2.80775551       1.06937487E-01  
2.80947896       1.06829595E-01  
2.81120240       1.06737591E-01  
2.81292585       1.06654520E-01  
2.81464930       1.06561580E-01  
2.81637275       1.06470055E-01  
2.81809619       1.06374547E-01  
2.81981964       1.06284333E-01  
2.82154309       1.06175474E-01  
2.82326653       1.06064208E-01  
2.82498998       1.05963243E-01  
2.82671343       1.05849454E-01  
2.82843687       1.05723894E-01  
2.83016032       1.05633603E-01  
2.83188377       1.05561702E-01  
2.83360721       1.05483880E-01  
2.83533066       1.05419082E-01  
2.83705411       1.05356885E-01  
2.83877756       1.05289222E-01  
2.84050100       1.05230753E-01  
2.84222445       1.05172323E-01  
2.84394790       1.05124220E-01  
2.84567134       1.05107853E-01  
2.84739479       1.05074115E-01  
2.84911824       1.05032600E-01  
2.85084168       1.05020002E-01  
2.85256513       1.04997691E-01  
2.85428858       1.04982327E-01  
2.85601202       1.04955172E-01  
2.85773547       1.04906694E-01  
2.85945892       1.04879977E-01  
2.86118236       1.04848792E-01  
2.86290581       1.04789063E-01  
2.86462926       1.04768179E-01  
2.86635271       1.04718298E-01  
2.86807615       1.04661944E-01  
2.86979960       1.04615116E-01  
2.87152305       1.04552561E-01  
2.87324649       1.04490007E-01  
2.87496994       1.04408163E-01  
2.87669339       1.04334505E-01  
2.87841683       1.04235952E-01  
2.88014028       1.04142529E-01  
2.88186373       1.04059703E-01  
2.88358717       1.03954193E-01  
2.88531062       1.03864246E-01  
2.88703407       1.03745278E-01  
2.88875752       1.03645619E-01  
2.89048096       1.03521821E-01  
2.89220441       1.03401520E-01  
2.89392786       1.03291918E-01  
2.89565130       1.03182381E-01  
2.89737475       1.03051002E-01  
2.89909820       1.02947634E-01  
2.90082164       1.02811116E-01  
2.90254509       1.02675793E-01  
2.90426854       1.02536879E-01  
2.90599198       1.02385620E-01  
2.90771543       1.02205218E-01  
2.90943888       1.02047068E-01  
2.91116232       1.01884393E-01  
2.91288577       1.01728654E-01  
2.91460922       1.01525456E-01  
2.91633267       1.01348945E-01  
2.91805611       1.01177114E-01  
2.91977956       1.00965498E-01  
2.92150301       1.00774208E-01  
2.92322645       1.00574949E-01  
2.92494990       1.00351288E-01  
2.92667335       1.00153295E-01  
2.92839679       9.99353056E-02  
2.93012024       9.97284251E-02  
2.93184369       9.94983379E-02  
2.93356713       9.92946269E-02  
2.93529058       9.90964274E-02  
2.93701403       9.88604641E-02  
2.93873747       9.86704995E-02  
2.94046092       9.84866928E-02  
2.94218437       9.83082123E-02  
2.94390782       9.81231449E-02  
2.94563126       9.79430218E-02  
2.94735471       9.77895455E-02  
2.94907816       9.76444558E-02  
2.95080160       9.74996801E-02  
2.95252505       9.73742991E-02  
2.95424850       9.72566271E-02  
2.95597194       9.71374954E-02  
2.95769539       9.70361231E-02  
2.95941884       9.69654116E-02  
2.96114228       9.68694332E-02  
2.96286573       9.67812800E-02  
2.96458918       9.67159718E-02  
2.96631263       9.66380801E-02  
2.96803607       9.65684766E-02  
2.96975952       9.65130712E-02  
2.97148297       9.64395039E-02  
2.97320641       9.63585624E-02  
2.97492986       9.62844249E-02  
2.97665331       9.61964241E-02  
2.97837675       9.61102724E-02  
2.98010020       9.60334116E-02  
2.98182365       9.59214135E-02  
2.98354709       9.58175508E-02  
2.98527054       9.57176711E-02  
2.98699399       9.56241172E-02  
2.98871743       9.55037594E-02  
2.99044088       9.53762582E-02  
2.99216433       9.52635565E-02  
2.99388778       9.51431689E-02  
2.99561122       9.50237072E-02  
2.99733467       9.48909109E-02  
2.99905812       9.47756949E-02  
3.00078156       9.46500467E-02  
3.00250501       9.45289334E-02  
3.00422846       9.44110614E-02  
3.00595190       9.43134630E-02  
3.00767535       9.42254081E-02  
3.00939880       9.41385493E-02  
3.01112224       9.40615779E-02  
3.01284569       9.39876509E-02  
3.01456914       9.39387929E-02  
3.01629259       9.39143011E-02  
3.01801603       9.38910977E-02  
3.01973948       9.38917037E-02  
3.02146293       9.38959952E-02  
3.02318637       9.39123270E-02  
3.02490982       9.39582391E-02  
3.02663327       9.40014138E-02  
3.02835671       9.40550398E-02  
3.03008016       9.41192323E-02  
3.03180361       9.42063501E-02  
3.03352705       9.42925176E-02  
3.03525050       9.43896362E-02  
3.03697395       9.44717812E-02  
3.03869739       9.45673131E-02  
3.04042084       9.46609077E-02  
3.04214429       9.47612724E-02  
3.04386774       9.48291186E-02  
3.04559118       9.49269948E-02  
3.04731463       9.50080561E-02  
3.04903808       9.50888624E-02  
3.05076152       9.51391613E-02  
3.05248497       9.51790346E-02  
3.05420842       9.52344239E-02  
3.05593186       9.52524923E-02  
3.05765531       9.52810603E-02  
3.05937876       9.53050496E-02  
3.06110220       9.53276710E-02  
3.06282565       9.53439352E-02  
3.06454910       9.53493116E-02  
3.06627255       9.53601227E-02  
3.06799599       9.53894602E-02  
3.06971944       9.53958726E-02  
3.07144289       9.54096167E-02  
3.07316633       9.54314439E-02  
3.07488978       9.54611788E-02  
3.07661323       9.55081581E-02  
3.07833667       9.55539005E-02  
3.08006012       9.56098341E-02  
3.08178357       9.56875284E-02  
3.08350701       9.57722428E-02  
3.08523046       9.58829376E-02  
3.08695391       9.59926070E-02  
3.08867735       9.61193393E-02  
3.09040080       9.62525344E-02  
3.09212425       9.63867420E-02  
3.09384770       9.65223323E-02  
3.09557114       9.66453450E-02  
3.09729459       9.67868841E-02  
3.09901804       9.68814398E-02  
3.10074148       9.69900132E-02  
3.10246493       9.70410206E-02  
3.10418838       9.70686914E-02  
3.10591182       9.70295042E-02  
3.10763527       9.69167716E-02  
3.10935872       9.66994535E-02  
3.11108216       9.63890996E-02  
3.11280561       9.59469701E-02  
3.11452906       9.53154558E-02  
3.11625251       9.44952827E-02  
3.11797595       9.34734982E-02  
3.11969940       9.22068546E-02  
3.12142285       9.06564278E-02  
3.12314629       8.88273480E-02  
3.12486974       8.67377590E-02  
3.12659319       8.42845951E-02  
3.12831663       8.15494653E-02  
3.13004008       7.85253692E-02  
3.13176353       7.52376942E-02  
3.13348697       7.16764489E-02  
3.13521042       6.79510288E-02  
3.13693387       6.40857436E-02  
3.13865731       6.01122735E-02  
3.14038076       5.61054569E-02  
3.14210421       5.21153411E-02  
3.14382766       4.81969140E-02  
3.14555110       4.43979780E-02  
3.14727455       4.07400194E-02  
3.14899800       3.72492125E-02  
3.15072144       3.39880306E-02  
3.15244489       3.09389647E-02  
3.15416834       2.80987089E-02  
3.15589178       2.54925163E-02  
3.15761523       2.31200535E-02  
3.15933868       2.09452611E-02  
3.16106212       1.89601861E-02  
3.16278557       1.71872167E-02  
3.16450902       1.55840778E-02  
3.16623246       1.41310645E-02  
3.16795591       1.28258388E-02  
3.16967936       1.16657249E-02  
3.17140281       1.06173356E-02  
3.17312625       9.66829753E-03  
3.17484970       8.82969199E-03  
3.17657315       8.07528559E-03  
3.17829659       7.39181473E-03  
3.18002004       6.78044220E-03  
3.18174349       6.23353067E-03  
3.18346693       5.73857645E-03  
3.18519038       5.29027423E-03  
3.18691383       4.88907178E-03  
3.18863727       4.52670668E-03  
3.19036072       4.19667296E-03  
3.19208417       3.89833525E-03  
3.19380762       3.62965068E-03  
3.19553106       3.38354635E-03  
3.19725451       3.15923048E-03  
3.19897796       2.95569625E-03  
3.20070140       2.76890117E-03  
3.20242485       2.59698220E-03  
3.20414830       2.44012596E-03  
3.20587174       2.29609639E-03  
3.20759519       2.16324858E-03  
3.20931864       2.04025800E-03  
3.21104208       1.92715749E-03  
3.21276553       1.82185544E-03  
3.21448898       1.72370768E-03  
3.21621242       1.63231655E-03  
3.21793587       1.54648527E-03  
3.21965932       1.46635838E-03  
3.22138277       1.39068570E-03  
3.22310621       1.32003702E-03  
3.22482966       1.25303481E-03  
3.22655311       1.18936655E-03  
3.22827655       1.12939165E-03  
3.23000000       1.07232891E-03  
