# F150W2 filter 
# Wavelength [microns]  |  Transmission efficiency
0.55000000       3.18588710E-06  
0.55100000       2.47467717E-06  
0.55200000       3.58241427E-06  
0.55300000       4.65582420E-06  
0.55400000       5.11676019E-06  
0.55500000       5.10443325E-06  
0.55600000       4.89425824E-06  
0.55700000       5.58445823E-06  
0.55800000       6.73144061E-06  
0.55900000       7.75461652E-06  
0.56000000       8.33327527E-06  
0.56100000       8.84367260E-06  
0.56200000       8.99203015E-06  
0.56300000       8.68611351E-06  
0.56400000       8.59444623E-06  
0.56500000       8.16018235E-06  
0.56600000       7.70603919E-06  
0.56700000       6.91910770E-06  
0.56800000       6.61132821E-06  
0.56900000       6.45795243E-06  
0.57000000       6.07851749E-06  
0.57100000       6.25529351E-06  
0.57200000       7.37543432E-06  
0.57300000       8.86272174E-06  
0.57400000       9.92400271E-06  
0.57500000       1.18773240E-05  
0.57600000       1.59816526E-05  
0.57700000       2.10416530E-05  
0.57800000       2.58569529E-05  
0.57900000       3.15659965E-05  
0.58000000       3.88996690E-05  
0.58100000       4.83469208E-05  
0.58200000       6.09705167E-05  
0.58300000       8.28419347E-05  
0.58400000       1.33781260E-04  
0.58500000       2.53523681E-04  
0.58600000       4.41451543E-04  
0.58700000       5.62820608E-04  
0.58800000       5.03308532E-04  
0.58900000       3.16730535E-04  
0.59000000       1.61523487E-04  
0.59100000       8.77079122E-05  
0.59200000       5.87707563E-05  
0.59300000       4.33426039E-05  
0.59400000       3.49157727E-05  
0.59500000       3.33200556E-05  
0.59600000       3.06178604E-05  
0.59700000       3.09662661E-05  
0.59800000       3.32092952E-05  
0.59900000       3.41781645E-05  
0.60000000       3.67222783E-05  
0.60100000       4.10078871E-05  
0.60200000       4.78040964E-05  
0.60300000       5.84636291E-05  
0.60400000       7.13333583E-05  
0.60500000       8.30551534E-05  
0.60600000       9.56701657E-05  
0.60700000       1.07145909E-04  
0.60800000       1.10545797E-04  
0.60900000       1.06999712E-04  
0.61000000       9.87521597E-05  
0.61100000       8.76028335E-05  
0.61200000       7.43553750E-05  
0.61300000       6.32440678E-05  
0.61400000       5.41580834E-05  
0.61500000       4.85464265E-05  
0.61600000       4.39297115E-05  
0.61700000       4.16777644E-05  
0.61800000       4.14894543E-05  
0.61900000       3.89378258E-05  
0.62000000       3.62978505E-05  
0.62100000       3.46764049E-05  
0.62200000       3.89358121E-05  
0.62300000       4.21020307E-05  
0.62400000       4.68959286E-05  
0.62500000       5.56454247E-05  
0.62600000       6.87147413E-05  
0.62700000       8.97737025E-05  
0.62800000       1.25984297E-04  
0.62900000       1.85497965E-04  
0.63000000       2.77152601E-04  
0.63100000       3.91966694E-04  
0.63200000       4.76860019E-04  
0.63300000       4.82191974E-04  
0.63400000       4.10702888E-04  
0.63500000       3.19291608E-04  
0.63600000       2.48118183E-04  
0.63700000       2.06951532E-04  
0.63800000       1.86444878E-04  
0.63900000       1.80510447E-04  
0.64000000       1.90789739E-04  
0.64100000       2.11105369E-04  
0.64200000       2.40256875E-04  
0.64300000       2.70635602E-04  
0.64400000       2.95336340E-04  
0.64500000       2.99072184E-04  
0.64600000       2.72954961E-04  
0.64700000       2.27842645E-04  
0.64800000       1.78629004E-04  
0.64900000       1.41957410E-04  
0.65000000       1.15478968E-04  
0.65100000       9.51668791E-05  
0.65200000       8.22225148E-05  
0.65300000       7.92282569E-05  
0.65400000       7.84435066E-05  
0.65500000       8.08908499E-05  
0.65600000       8.76237939E-05  
0.65700000       1.03129245E-04  
0.65800000       1.21814036E-04  
0.65900000       1.46972584E-04  
0.66000000       1.77446696E-04  
0.66100000       2.08555831E-04  
0.66200000       2.20125019E-04  
0.66300000       2.09747157E-04  
0.66400000       1.87804369E-04  
0.66500000       1.65027438E-04  
0.66600000       1.41977782E-04  
0.66700000       1.22312767E-04  
0.66800000       1.13138318E-04  
0.66900000       1.08301217E-04  
0.67000000       1.07186592E-04  
0.67100000       1.08015137E-04  
0.67200000       1.19762383E-04  
0.67300000       1.38901390E-04  
0.67400000       1.64920412E-04  
0.67500000       1.89334640E-04  
0.67600000       2.13078271E-04  
0.67700000       2.27760996E-04  
0.67800000       2.33071726E-04  
0.67900000       2.22903079E-04  
0.68000000       1.99207360E-04  
0.68100000       1.65589398E-04  
0.68200000       1.39757948E-04  
0.68300000       1.30355808E-04  
0.68400000       1.26000036E-04  
0.68500000       1.20927836E-04  
0.68600000       1.17169039E-04  
0.68700000       1.20609401E-04  
0.68800000       1.27099365E-04  
0.68900000       1.31964597E-04  
0.69000000       1.41916661E-04  
0.69100000       1.51467216E-04  
0.69200000       1.52400630E-04  
0.69300000       1.44989830E-04  
0.69400000       1.34371728E-04  
0.69500000       1.20871817E-04  
0.69600000       1.03623094E-04  
0.69700000       9.15978450E-05  
0.69800000       8.37300185E-05  
0.69900000       7.77083453E-05  
0.70000000       7.20838812E-05  
0.70100000       6.55270651E-05  
0.70200000       6.20959821E-05  
0.70300000       6.54935168E-05  
0.70400000       7.57956877E-05  
0.70500000       8.84478951E-05  
0.70600000       1.04514066E-04  
0.70700000       1.22684648E-04  
0.70800000       1.45878641E-04  
0.70900000       1.84421928E-04  
0.71000000       2.56258826E-04  
0.71100000       3.75686962E-04  
0.71200000       5.55173955E-04  
0.71300000       8.00393690E-04  
0.71400000       1.13016322E-03  
0.71500000       1.46857372E-03  
0.71600000       1.66777054E-03  
0.71700000       1.57135573E-03  
0.71800000       1.26478598E-03  
0.71900000       9.20807457E-04  
0.72000000       6.49690374E-04  
0.72100000       4.48158346E-04  
0.72200000       3.09142983E-04  
0.72300000       2.29097974E-04  
0.72400000       1.67415760E-04  
0.72500000       1.27383388E-04  
0.72600000       1.01871432E-04  
0.72700000       8.58043783E-05  
0.72800000       6.92207034E-05  
0.72900000       5.35269657E-05  
0.73000000       4.89558641E-05  
0.73100000       4.65457769E-05  
0.73200000       4.39949126E-05  
0.73300000       4.02157568E-05  
0.73400000       4.42292562E-05  
0.73500000       4.59750824E-05  
0.73600000       4.14979895E-05  
0.73700000       4.35902610E-05  
0.73800000       5.34362926E-05  
0.73900000       6.73307300E-05  
0.74000000       7.39709144E-05  
0.74100000       9.24071552E-05  
0.74200000       1.21811221E-04  
0.74300000       1.75414066E-04  
0.74400000       2.61717561E-04  
0.74500000       3.97712614E-04  
0.74600000       5.93608784E-04  
0.74700000       8.51669191E-04  
0.74800000       1.11837243E-03  
0.74900000       1.31217719E-03  
0.75000000       1.39133147E-03  
0.75100000       1.44349918E-03  
0.75200000       1.69080433E-03  
0.75300000       2.28264820E-03  
0.75400000       2.94367854E-03  
0.75500000       2.93741094E-03  
0.75600000       2.08102299E-03  
0.75700000       1.02574355E-03  
0.75800000       4.21200557E-04  
0.75900000       2.06807829E-04  
0.76000000       1.17794832E-04  
0.76100000       6.65391493E-05  
0.76200000       3.97935954E-05  
0.76300000       3.23089330E-05  
0.76400000       2.24179380E-05  
0.76500000       1.26319691E-05  
0.76600000       1.21494032E-05  
0.76700000       1.29690468E-05  
0.76800000       1.27077944E-05  
0.76900000       8.70209864E-06  
0.77000000       9.04048749E-06  
0.77100000       7.54958239E-06  
0.77200000       9.53211931E-06  
0.77300000       9.21323077E-06  
0.77400000       4.14609582E-06  
0.77500000       5.42017678E-06  
0.77600000       7.83950895E-06  
0.77700000       1.42862303E-05  
0.77800000       5.55323866E-06  
0.77900000       6.45001100E-06  
0.78000000       9.01495309E-06  
0.78100000       1.33164322E-05  
0.78200000       7.57729354E-06  
0.78300000       1.46353267E-05  
0.78400000       1.46380875E-05  
0.78500000       1.12985802E-05  
0.78600000       9.73247284E-06  
0.78700000       1.51688724E-05  
0.78800000       2.35444245E-05  
0.78900000       4.35211645E-05  
0.79000000       8.50954918E-05  
0.79100000       1.29301873E-04  
0.79200000       1.49440265E-04  
0.79300000       1.22629366E-04  
0.79400000       8.16885461E-05  
0.79500000       5.51293400E-05  
0.79600000       4.08182817E-05  
0.79700000       0.00000000E+00  
0.79800000       2.92290506E-04  
0.79900000       8.53267635E-04  
0.80000000       1.81581992E-03  
0.80100000       1.34086814E-03  
0.80200000       1.99859927E-03  
0.80300000       1.80030886E-03  
0.80400000       1.83959243E-03  
0.80500000       3.85397093E-04  
0.80600000       1.47751953E-04  
0.80700000       6.66870393E-04  
0.80800000       1.51883244E-03  
0.80900000       1.68208058E-03  
0.81000000       8.18570418E-04  
0.81100000       1.03741263E-03  
0.81200000       9.66600104E-04  
0.81300000       1.40523191E-03  
0.81400000       1.33818684E-03  
0.81500000       1.49431426E-03  
0.81600000       1.04578035E-03  
0.81700000       1.17358650E-03  
0.81800000       1.09035112E-03  
0.81900000       8.79270370E-04  
0.82000000       1.21797318E-03  
0.82100000       1.97628360E-03  
0.82200000       1.65263754E-03  
0.82300000       4.93665368E-04  
0.82400000       0.00000000E+00  
0.82500000       2.08669876E-04  
0.82600000       1.30989463E-03  
0.82700000       1.61773788E-03  
0.82800000       7.22400743E-04  
0.82900000       4.49117850E-06  
0.83000000       4.68671480E-04  
0.83100000       9.01982152E-04  
0.83200000       1.16184988E-03  
0.83300000       1.02006233E-03  
0.83400000       9.94293332E-04  
0.83500000       9.05377606E-04  
0.83600000       9.62679014E-04  
0.83700000       8.94898521E-04  
0.83800000       1.11852703E-03  
0.83900000       1.15582723E-03  
0.84000000       9.31340629E-04  
0.84100000       7.59293370E-04  
0.84200000       9.12707455E-04  
0.84300000       8.00892356E-04  
0.84400000       6.89163498E-04  
0.84500000       6.22178196E-04  
0.84600000       7.78300394E-04  
0.84700000       1.07430805E-03  
0.84800000       1.18638694E-03  
0.84900000       8.77302774E-04  
0.85000000       7.65832336E-04  
0.85100000       9.83239154E-04  
0.85200000       1.13727486E-03  
0.85300000       1.15923321E-03  
0.85400000       1.34869387E-03  
0.85500000       9.02563902E-04  
0.85600000       5.06424357E-04  
0.85700000       3.15522897E-04  
0.85800000       8.15041330E-04  
0.85900000       1.01861834E-03  
0.86000000       1.37204078E-03  
0.86100000       9.01305269E-04  
0.86200000       7.20052650E-04  
0.86300000       5.03766587E-04  
0.86400000       9.25137310E-04  
0.86500000       9.78241210E-04  
0.86600000       1.09133540E-03  
0.86700000       6.19657091E-04  
0.86800000       7.55839447E-04  
0.86900000       1.01538451E-03  
0.87000000       1.21640723E-03  
0.87100000       9.61532477E-04  
0.87200000       1.08658009E-03  
0.87300000       1.09122107E-03  
0.87400000       9.46598238E-04  
0.87500000       9.35888028E-04  
0.87600000       1.04217306E-03  
0.87700000       1.06894560E-03  
0.87800000       1.00467741E-03  
0.87900000       9.63494549E-04  
0.88000000       8.73200456E-04  
0.88100000       7.56938196E-04  
0.88200000       7.33352573E-04  
0.88300000       7.74922701E-04  
0.88400000       6.93197784E-04  
0.88500000       5.67810705E-04  
0.88600000       6.32994634E-04  
0.88700000       7.88833821E-04  
0.88800000       6.83161688E-04  
0.88900000       5.62363164E-04  
0.89000000       7.20302709E-04  
0.89100000       8.36008964E-04  
0.89200000       8.15202624E-04  
0.89300000       8.55730177E-04  
0.89400000       9.52962742E-04  
0.89500000       9.79979131E-04  
0.89600000       9.72006417E-04  
0.89700000       9.20658179E-04  
0.89800000       9.00822536E-04  
0.89900000       9.03333563E-04  
0.90000000       9.55319789E-04  
0.90100000       1.05529093E-03  
0.90200000       1.08807840E-03  
0.90300000       1.05451235E-03  
0.90400000       1.00681448E-03  
0.90500000       9.98752156E-04  
0.90600000       8.85007110E-04  
0.90700000       7.65598186E-04  
0.90800000       7.88065621E-04  
0.90900000       8.42480981E-04  
0.91000000       7.73141211E-04  
0.91100000       6.52593102E-04  
0.91200000       6.76955382E-04  
0.91300000       8.03672563E-04  
0.91400000       7.71167873E-04  
0.91500000       6.72469347E-04  
0.91600000       5.39415945E-04  
0.91700000       4.28782767E-04  
0.91800000       4.43371086E-04  
0.91900000       5.65629618E-04  
0.92000000       6.40166074E-04  
0.92100000       6.02144352E-04  
0.92200000       5.69703955E-04  
0.92300000       6.44626674E-04  
0.92400000       7.61626921E-04  
0.92500000       8.46787639E-04  
0.92600000       8.53870859E-04  
0.92700000       9.78632281E-04  
0.92800000       1.11571149E-03  
0.92900000       1.23578321E-03  
0.93000000       1.26911767E-03  
0.93100000       1.35901726E-03  
0.93200000       1.53608513E-03  
0.93300000       1.70198190E-03  
0.93400000       1.78602203E-03  
0.93500000       1.83341927E-03  
0.93600000       1.93432815E-03  
0.93700000       2.06005927E-03  
0.93800000       2.16123847E-03  
0.93900000       2.24599663E-03  
0.94000000       2.27883515E-03  
0.94100000       2.28220725E-03  
0.94200000       2.28476971E-03  
0.94300000       2.32029942E-03  
0.94400000       2.28109401E-03  
0.94500000       2.23306740E-03  
0.94600000       2.17273202E-03  
0.94700000       2.10257255E-03  
0.94800000       2.00976207E-03  
0.94900000       1.93447432E-03  
0.95000000       1.85299088E-03  
0.95100000       1.76419515E-03  
0.95200000       1.71516780E-03  
0.95300000       1.64857782E-03  
0.95400000       1.54787683E-03  
0.95500000       1.48732548E-03  
0.95600000       1.45061195E-03  
0.95700000       1.40418336E-03  
0.95800000       1.35568615E-03  
0.95900000       1.34580796E-03  
0.96000000       1.33440614E-03  
0.96100000       1.36730375E-03  
0.96200000       1.45263721E-03  
0.96300000       1.55855766E-03  
0.96400000       1.62040365E-03  
0.96500000       1.73424244E-03  
0.96600000       1.90377645E-03  
0.96700000       2.10750073E-03  
0.96800000       2.32729646E-03  
0.96900000       2.62289319E-03  
0.97000000       3.03905709E-03  
0.97100000       3.51077365E-03  
0.97200000       4.06916595E-03  
0.97300000       4.76595146E-03  
0.97400000       5.63036644E-03  
0.97500000       6.60900947E-03  
0.97600000       7.86468334E-03  
0.97700000       9.34839218E-03  
0.97800000       1.11175094E-02  
0.97900000       1.31420051E-02  
0.98000000       1.57224513E-02  
0.98100000       1.85500728E-02  
0.98200000       2.18941360E-02  
0.98300000       2.56618466E-02  
0.98400000       2.99430931E-02  
0.98500000       3.50386950E-02  
0.98600000       4.03863917E-02  
0.98700000       4.61990941E-02  
0.98800000       5.23898615E-02  
0.98900000       5.97613544E-02  
0.99000000       6.74647323E-02  
0.99100000       7.54114774E-02  
0.99200000       8.48274174E-02  
0.99300000       9.39141642E-02  
0.99400000       1.02981729E-01  
0.99500000       1.11901035E-01  
0.99600000       1.22721828E-01  
0.99700000       1.33340374E-01  
0.99800000       1.44030148E-01  
0.99900000       1.54670030E-01  
1.00000000       1.64334123E-01  
1.00100000       1.73740460E-01  
1.00200000       1.83248432E-01  
1.00300000       1.92894304E-01  
1.00400000       2.02579743E-01  
1.00500000       2.11238932E-01  
1.00600000       2.19235174E-01  
1.00700000       2.25601214E-01  
1.00800000       2.32518925E-01  
1.00900000       2.38809116E-01  
1.01000000       2.44902442E-01  
1.01100000       2.51314276E-01  
1.01200000       2.57569671E-01  
1.01300000       2.62910825E-01  
1.01400000       2.67568428E-01  
1.01500000       2.72061113E-01  
1.01600000       2.75090245E-01  
1.01700000       2.78248938E-01  
1.01800000       2.82011386E-01  
1.01900000       2.85907342E-01  
1.02000000       2.89504671E-01  
1.02100000       2.92830110E-01  
1.02200000       2.96019794E-01  
1.02300000       2.97540198E-01  
1.02400000       2.99419042E-01  
1.02500000       3.00365926E-01  
1.02600000       3.01379318E-01  
1.02700000       3.02480285E-01  
1.02800000       3.04053178E-01  
1.02900000       3.05631126E-01  
1.03000000       3.06197379E-01  
1.03100000       3.06747777E-01  
1.03200000       3.07331542E-01  
1.03300000       3.07462165E-01  
1.03400000       3.07977287E-01  
1.03500000       3.08324886E-01  
1.03600000       3.08851493E-01  
1.03700000       3.09835733E-01  
1.03800000       3.10021740E-01  
1.03900000       3.10075489E-01  
1.04000000       3.09046881E-01  
1.04100000       3.08966644E-01  
1.04200000       3.08685503E-01  
1.04300000       3.09464971E-01  
1.04400000       3.10203628E-01  
1.04500000       3.10780628E-01  
1.04600000       3.10452295E-01  
1.04700000       3.10429902E-01  
1.04800000       3.11461321E-01  
1.04900000       3.11403136E-01  
1.05000000       3.11165296E-01  
1.05100000       3.11535988E-01  
1.05200000       3.13040546E-01  
1.05300000       3.14211528E-01  
1.05400000       3.14363946E-01  
1.05500000       3.14534822E-01  
1.05600000       3.13223540E-01  
1.05700000       3.12395387E-01  
1.05800000       3.11968979E-01  
1.05900000       3.12338063E-01  
1.06000000       3.13393416E-01  
1.06100000       3.14030875E-01  
1.06200000       3.15408383E-01  
1.06300000       3.16381363E-01  
1.06400000       3.17570495E-01  
1.06500000       3.18026475E-01  
1.06600000       3.19516736E-01  
1.06700000       3.20842906E-01  
1.06800000       3.22313318E-01  
1.06900000       3.23765067E-01  
1.07000000       3.23885809E-01  
1.07100000       3.24236665E-01  
1.07200000       3.25294140E-01  
1.07300000       3.25962985E-01  
1.07400000       3.26462826E-01  
1.07500000       3.27053890E-01  
1.07600000       3.28674997E-01  
1.07700000       3.29064679E-01  
1.07800000       3.29331982E-01  
1.07900000       3.30406802E-01  
1.08000000       3.30762381E-01  
1.08100000       3.30974055E-01  
1.08200000       3.31298265E-01  
1.08300000       3.31458853E-01  
1.08400000       3.31604558E-01  
1.08500000       3.32371096E-01  
1.08600000       3.33632731E-01  
1.08700000       3.34937021E-01  
1.08800000       3.34938458E-01  
1.08900000       3.34598579E-01  
1.09000000       3.34223965E-01  
1.09100000       3.34850007E-01  
1.09200000       3.36751406E-01  
1.09300000       3.37955686E-01  
1.09400000       3.38377944E-01  
1.09500000       3.37627488E-01  
1.09600000       3.37644560E-01  
1.09700000       3.37675236E-01  
1.09800000       3.37836622E-01  
1.09900000       3.38109284E-01  
1.10000000       3.38631746E-01  
1.10100000       3.39249134E-01  
1.10200000       3.39136952E-01  
1.10300000       3.38697367E-01  
1.10400000       3.38879267E-01  
1.10500000       3.38522142E-01  
1.10600000       3.38037036E-01  
1.10700000       3.37855629E-01  
1.10800000       3.39179188E-01  
1.10900000       3.38721413E-01  
1.11000000       3.38286861E-01  
1.11100000       3.38402611E-01  
1.11200000       3.38897135E-01  
1.11300000       3.38750021E-01  
1.11400000       3.38917809E-01  
1.11500000       3.40158603E-01  
1.11600000       3.40958327E-01  
1.11700000       3.41369243E-01  
1.11800000       3.42124893E-01  
1.11900000       3.42475564E-01  
1.12000000       3.41960887E-01  
1.12100000       3.40985824E-01  
1.12200000       3.41205506E-01  
1.12300000       3.41153026E-01  
1.12400000       3.41830235E-01  
1.12500000       3.43774774E-01  
1.12600000       3.45613783E-01  
1.12700000       3.45981552E-01  
1.12800000       3.45971085E-01  
1.12900000       3.46307680E-01  
1.13000000       3.48288004E-01  
1.13100000       3.50116244E-01  
1.13200000       3.51558583E-01  
1.13300000       3.51680962E-01  
1.13400000       3.52132479E-01  
1.13500000       3.52807652E-01  
