# F410M filter 
# Wavelength [microns]  |  Transmission efficiency
2.00046639       2.34239237E-10  
2.00207448       2.11777685E-10  
2.00368257       1.92526393E-10  
2.00529066       1.75821655E-10  
2.00689875       1.61291066E-10  
2.00850685       1.49636151E-10  
2.01011494       1.39267574E-10  
2.01172303       1.29452867E-10  
2.01333112       1.21961460E-10  
2.01493921       1.16061214E-10  
2.01654731       1.09497694E-10  
2.01815540       1.04973001E-10  
2.01976349       9.97897821E-11  
2.02137158       9.62012035E-11  
2.02297967       9.25147285E-11  
2.02458777       8.76748204E-11  
2.02619586       8.41685025E-11  
2.02780395       8.08997166E-11  
2.02941204       7.84904941E-11  
2.03102013       7.67051881E-11  
2.03262822       7.57075869E-11  
2.03423632       7.42785432E-11  
2.03584441       7.40606138E-11  
2.03745250       7.41399651E-11  
2.03906059       7.41017161E-11  
2.04066868       7.48261589E-11  
2.04227678       7.46379035E-11  
2.04388487       7.45879849E-11  
2.04549296       7.48927644E-11  
2.04710105       7.55016532E-11  
2.04870914       7.72044386E-11  
2.05031724       7.90729287E-11  
2.05192533       8.06537623E-11  
2.05353342       8.32836904E-11  
2.05514151       8.53381834E-11  
2.05674960       8.83660492E-11  
2.05835770       9.24651169E-11  
2.05996579       9.84305190E-11  
2.06157388       1.04492905E-10  
2.06318197       1.10811714E-10  
2.06479006       1.17627965E-10  
2.06639816       1.25046447E-10  
2.06800625       1.33993197E-10  
2.06961434       1.44449934E-10  
2.07122243       1.56182494E-10  
2.07283052       1.70806929E-10  
2.07443862       1.85528313E-10  
2.07604671       2.02899900E-10  
2.07765480       2.21608142E-10  
2.07926289       2.44913787E-10  
2.08087098       2.72545801E-10  
2.08247908       3.05348858E-10  
2.08408717       3.45380203E-10  
2.08569526       3.90764147E-10  
2.08730335       4.43862310E-10  
2.08891144       5.04982947E-10  
2.09051954       5.77752946E-10  
2.09212763       6.64114625E-10  
2.09373572       7.67996703E-10  
2.09534381       8.99035643E-10  
2.09695190       1.04900780E-09  
2.09856000       1.23125832E-09  
2.10016809       1.45438833E-09  
2.10177618       1.68861624E-09  
2.10338427       1.95609431E-09  
2.10499236       2.26147151E-09  
2.10660045       2.58690999E-09  
2.10820855       2.94849326E-09  
2.10981664       3.32223300E-09  
2.11142473       3.68272664E-09  
2.11303282       3.99548336E-09  
2.11464091       4.23425778E-09  
2.11624901       4.45027290E-09  
2.11785710       4.55928987E-09  
2.11946519       4.58016800E-09  
2.12107328       4.53982336E-09  
2.12268137       4.43805743E-09  
2.12428947       4.28634511E-09  
2.12589756       4.14753097E-09  
2.12750565       4.01264863E-09  
2.12911374       3.88611576E-09  
2.13072183       3.78755483E-09  
2.13232993       3.69548871E-09  
2.13393802       3.62027666E-09  
2.13554611       3.55357460E-09  
2.13715420       3.49191709E-09  
2.13876229       3.43210211E-09  
2.14037039       3.36083948E-09  
2.14197848       3.28687640E-09  
2.14358657       3.21703021E-09  
2.14519466       3.15049773E-09  
2.14680275       3.06422439E-09  
2.14841085       2.96596043E-09  
2.15001894       2.86547511E-09  
2.15162703       2.75277155E-09  
2.15323512       2.64812274E-09  
2.15484321       2.52028023E-09  
2.15645131       2.40880954E-09  
2.15805940       2.23265289E-09  
2.15966749       2.07246284E-09  
2.16127558       1.90669274E-09  
2.16288367       1.74113342E-09  
2.16449177       1.60847452E-09  
2.16609986       1.50421232E-09  
2.16770795       1.41672159E-09  
2.16931604       1.37018292E-09  
2.17092413       1.32477870E-09  
2.17253222       1.27356746E-09  
2.17414032       1.22447591E-09  
2.17574841       1.14728640E-09  
2.17735650       1.06025858E-09  
2.17896459       9.73198717E-10  
2.18057269       8.85370784E-10  
2.18218078       8.12185977E-10  
2.18378887       7.51763639E-10  
2.18539696       6.99114286E-10  
2.18700505       6.78748821E-10  
2.18861314       6.68892042E-10  
2.19022124       6.47594845E-10  
2.19182933       6.31565709E-10  
2.19343742       6.13100947E-10  
2.19504551       6.15639471E-10  
2.19665360       6.61766284E-10  
2.19826170       7.27020548E-10  
2.19986979       8.02843441E-10  
2.20147788       8.55474868E-10  
2.20308597       9.06719332E-10  
2.20469406       1.09617720E-09  
2.20630216       1.18355158E-09  
2.20791025       1.29427496E-09  
2.20951834       1.35389297E-09  
2.21112643       1.44590132E-09  
2.21273452       1.49537210E-09  
2.21434262       1.50858146E-09  
2.21595071       1.49367567E-09  
2.21755880       1.40962663E-09  
2.21916689       1.49412653E-09  
2.22077498       1.96815930E-09  
2.22238308       2.69893333E-09  
2.22399117       3.59989658E-09  
2.22559926       4.59382583E-09  
2.22720735       5.64914728E-09  
2.22881544       5.70812776E-09  
2.23042353       5.73480510E-09  
2.23203163       4.64405139E-09  
2.23363972       4.23462187E-09  
2.23524781       3.66748000E-09  
2.23685590       2.76321784E-09  
2.23846400       2.18253279E-09  
2.24007209       2.55272863E-09  
2.24168018       3.20774819E-09  
2.24328827       4.01838033E-09  
2.24489636       5.17982016E-09  
2.24650445       7.29047272E-09  
2.24811255       7.82516052E-09  
2.24972064       8.52756900E-09  
2.25132873       7.98094584E-09  
2.25293682       7.79128498E-09  
2.25454491       8.85970328E-09  
2.25615301       1.27125680E-08  
2.25776110       1.81548813E-08  
2.25936919       2.18866896E-08  
2.26097728       2.59601310E-08  
2.26258537       2.68364842E-08  
2.26419347       2.33913337E-08  
2.26580156       2.29777692E-08  
2.26740965       1.66148084E-08  
2.26901774       1.81300187E-08  
2.27062583       2.62224233E-08  
2.27223393       3.13743848E-08  
2.27384202       3.90633465E-08  
2.27545011       3.59282590E-08  
2.27705820       3.54759473E-08  
2.27866629       4.58011992E-08  
2.28027439       4.70850119E-08  
2.28188248       4.86710924E-08  
2.28349057       5.64658515E-08  
2.28509866       6.62602559E-08  
2.28670675       7.30579827E-08  
2.28831484       7.46806448E-08  
2.28992294       7.68892939E-08  
2.29153103       6.97400871E-08  
2.29313912       6.35681268E-08  
2.29474721       4.12159757E-08  
2.29635531       3.14369409E-08  
2.29796340       3.14458475E-08  
2.29957149       3.21232155E-08  
2.30117958       3.31032933E-08  
2.30278767       3.69463398E-08  
2.30439577       4.79883516E-08  
2.30600386       8.19125332E-08  
2.30761195       8.09266151E-08  
2.30922004       7.27050753E-08  
2.31082813       6.72783524E-08  
2.31243622       5.98310868E-08  
2.31404432       5.89063821E-08  
2.31565241       6.88394864E-08  
2.31726050       9.61449945E-08  
2.31886859       2.09118211E-07  
2.32047668       1.61866888E-07  
2.32208478       1.77558314E-07  
2.32369287       5.37868236E-08  
2.32530096       5.87420622E-09  
2.32690905       1.35002786E-09  
2.32851714       1.45963583E-09  
2.33012524       1.63343733E-09  
2.33173333       2.32966137E-09  
2.33334142       8.68593789E-09  
2.33494951       4.92041882E-08  
2.33655760       9.96157531E-08  
2.33816570       1.33310479E-07  
2.33977379       1.37408333E-07  
2.34138188       2.75624713E-08  
2.34298997       6.05509205E-08  
2.34459806       6.76689760E-08  
2.34620616       6.02884348E-08  
2.34781425       5.32509261E-07  
2.34942234       9.60937491E-07  
2.35103043       1.24683677E-06  
2.35263852       1.41169064E-06  
2.35424662       1.17020536E-06  
2.35585471       1.13069608E-06  
2.35746280       1.10238474E-06  
2.35907089       1.06471158E-06  
2.36067898       1.03414161E-06  
2.36228708       1.06654668E-06  
2.36389517       1.11231696E-06  
2.36550326       1.16412227E-06  
2.36711135       1.24294633E-06  
2.36871944       1.32363435E-06  
2.37032753       1.28601842E-06  
2.37193563       1.13736386E-06  
2.37354372       1.00149170E-06  
2.37515181       9.73594574E-07  
2.37675990       9.67450749E-07  
2.37836800       9.76036342E-07  
2.37997609       1.19453207E-06  
2.38158418       1.46050454E-06  
2.38319227       1.50019998E-06  
2.38480036       1.16710309E-06  
2.38640845       1.10057657E-06  
2.38801655       6.41169717E-07  
2.38962464       4.18010734E-07  
2.39123273       3.48816288E-07  
2.39284082       2.57428029E-07  
2.39444891       1.94120805E-07  
2.39605701       1.68521415E-07  
2.39766510       2.57934735E-07  
2.39927319       7.06233749E-07  
2.40088128       1.64785690E-06  
2.40248937       2.00850513E-06  
2.40409747       2.52626334E-06  
2.40570556       1.70089776E-06  
2.40731365       9.58546361E-07  
2.40892174       6.21969896E-07  
2.41052983       2.05159061E-07  
2.41213793       2.47959699E-07  
2.41374602       4.66704383E-07  
2.41535411       5.58691498E-07  
2.41696220       6.75369380E-07  
2.41857029       7.50443317E-07  
2.42017839       6.41309218E-07  
2.42178648       7.21230835E-07  
2.42339457       1.09418136E-06  
2.42500266       9.83772486E-07  
2.42661075       8.94054278E-07  
2.42821884       9.44463164E-07  
2.42982694       1.08887161E-06  
2.43143503       1.25618412E-06  
2.43304312       1.46424259E-06  
2.43465121       1.73513839E-06  
2.43625931       2.08544717E-06  
2.43786740       1.62746724E-06  
2.43947549       1.52103943E-06  
2.44108358       1.47482200E-06  
2.44269167       1.47113408E-06  
2.44429977       1.46764948E-06  
2.44590786       1.31079310E-06  
2.44751595       8.08461313E-07  
2.44912404       4.99457148E-07  
2.45073213       1.86747111E-07  
2.45234022       2.98786329E-08  
2.45394832       6.85560827E-09  
2.45555641       9.76606098E-09  
2.45716450       8.09368027E-08  
2.45877259       7.58368270E-07  
2.46038068       2.00135285E-06  
2.46198878       2.05777075E-06  
2.46359687       2.14181612E-06  
2.46520496       2.12789942E-06  
2.46681305       2.07055875E-06  
2.46842114       2.03535273E-06  
2.47002924       1.73274801E-06  
2.47163733       1.47167133E-06  
2.47324542       1.30981710E-06  
2.47485351       1.27046191E-06  
2.47646160       1.42832466E-06  
2.47806970       1.65503685E-06  
2.47967779       1.68719406E-06  
2.48128588       1.68731526E-06  
2.48289397       1.68646408E-06  
2.48450206       1.55687794E-06  
2.48611015       1.42780032E-06  
2.48771825       1.30949745E-06  
2.48932634       1.14322277E-06  
2.49093443       9.96073353E-07  
2.49254252       8.67962076E-07  
2.49415062       1.07802433E-07  
2.49575871       1.52779822E-08  
2.49736680       4.37301881E-09  
2.49897489       3.17766392E-08  
2.49977816       2.33452058E-06  
2.50112939       1.13420119E-06  
2.50248062       2.94965635E-06  
2.50383186       4.75653780E-06  
2.50518309       3.99142905E-06  
2.50653432       8.43842457E-07  
2.50788555       3.10995096E-06  
2.50923678       1.28003003E-07  
2.51058801       3.87074069E-07  
2.51193924       4.41507501E-06  
2.51329048       6.00010230E-06  
2.51464171       1.82800450E-06  
2.51599294       4.32973463E-09  
2.51734417       5.18808409E-09  
2.51869540       3.19474898E-06  
2.52004663       2.56402658E-06  
2.52139786       4.36000563E-06  
2.52274910       7.47646932E-07  
2.52410033       1.18141520E-06  
2.52545156       3.17848540E-06  
2.52680279       4.66784295E-06  
2.52815402       1.18826922E-06  
2.52950525       3.46225098E-06  
2.53085648       5.15212702E-09  
2.53220772       5.48924028E-06  
2.53355895       4.62034414E-06  
2.53491018       3.34453924E-06  
2.53626141       2.22861603E-06  
2.53761264       5.14264863E-06  
2.53896387       1.02629642E-06  
2.54031511       3.25449133E-06  
2.54166634       2.68814056E-06  
2.54301757       4.89803429E-06  
2.54436880       7.66894883E-06  
2.54572003       3.59568794E-06  
2.54707126       6.08805738E-06  
2.54842249       2.29866006E-06  
2.54977373       6.34127580E-06  
2.55112496       4.86853065E-06  
2.55247619       4.17135846E-06  
2.55382742       3.93012816E-06  
2.55517865       1.70131034E-06  
2.55652988       5.25188040E-06  
2.55788111       3.97821891E-07  
2.55923234       1.25272467E-06  
2.56058358       1.30820944E-06  
2.56193481       2.88271142E-06  
2.56328604       2.82883753E-07  
2.56463727       4.26103913E-09  
2.56598850       5.08905667E-07  
2.56733973       2.24288918E-06  
2.56869096       4.23471010E-06  
2.57004220       4.25811710E-06  
2.57139343       8.94967176E-06  
2.57274466       2.48406694E-06  
2.57409589       1.07079846E-08  
2.57544712       5.22061774E-09  
2.57679835       4.16327530E-06  
2.57814959       5.86944052E-06  
2.57950082       4.97675098E-06  
2.58085205       1.53950424E-07  
2.58220328       2.48275984E-06  
2.58355451       6.22435929E-06  
2.58490574       3.96279927E-06  
2.58625697       3.11301236E-06  
2.58760820       1.83254067E-07  
2.58895944       6.00120272E-09  
2.59031067       6.48600470E-07  
2.59166190       1.66549709E-06  
2.59301313       2.90219601E-07  
2.59436436       5.78025003E-07  
2.59571559       4.28953839E-09  
2.59706682       2.23084434E-06  
2.59841806       1.20880956E-06  
2.59976929       8.94443460E-07  
2.60112052       1.56707169E-06  
2.60247175       4.56136289E-07  
2.60382298       3.96676784E-08  
2.60517421       3.12605125E-07  
2.60652545       3.51194598E-06  
2.60787668       1.97449282E-06  
2.60922791       2.28048555E-06  
2.61057914       1.27329257E-07  
2.61193037       2.15674700E-07  
2.61328160       2.39795777E-07  
2.61463283       8.60670447E-09  
2.61598407       1.66314937E-06  
2.61733530       6.32830838E-06  
2.61868653       6.90190976E-07  
2.62003776       1.14052619E-06  
2.62138899       1.59673830E-07  
2.62274022       2.49757689E-06  
2.62409145       1.51634297E-06  
2.62544268       6.48227344E-07  
2.62679392       2.66004283E-06  
2.62814515       5.66629092E-06  
2.62949638       5.28250665E-06  
2.63084761       3.24557679E-06  
2.63219884       2.25953577E-06  
2.63355007       5.31556166E-06  
2.63490131       3.64871564E-06  
2.63625254       1.87762087E-06  
2.63760377       3.40646334E-06  
2.63895500       8.02272482E-06  
2.64030623       7.98999218E-06  
2.64165746       1.90548593E-06  
2.64300869       4.09426420E-06  
2.64435993       1.34256568E-06  
2.64571116       2.20412252E-06  
2.64706239       1.88021550E-06  
2.64841362       3.66095442E-07  
2.64976485       6.70268889E-07  
2.65111608       1.68631988E-06  
2.65246731       1.36332751E-06  
2.65381855       1.71359021E-06  
2.65516978       1.78250573E-06  
2.65652101       4.31560878E-06  
2.65787224       2.59386696E-06  
2.65922347       1.73025333E-06  
2.66057470       1.14230108E-07  
2.66192593       5.17028302E-06  
2.66327717       3.41474724E-06  
2.66462840       1.10256362E-06  
2.66597963       1.60631877E-08  
2.66733086       9.43222397E-09  
2.66868209       2.47214134E-06  
2.67003332       5.01105854E-08  
2.67138455       3.01617884E-08  
2.67273579       4.71989735E-08  
2.67408702       5.95247161E-08  
2.67543825       1.08627991E-06  
2.67678948       3.02641296E-06  
2.67814071       4.12664119E-06  
2.67949194       4.76509684E-06  
2.68084317       2.84366484E-06  
2.68219441       4.30904223E-09  
2.68354564       2.45826192E-06  
2.68489687       2.79677978E-06  
2.68624810       4.26821720E-06  
2.68759933       7.08227405E-06  
2.68895056       6.86788521E-06  
2.69030179       5.04350021E-07  
2.69165303       2.34872531E-06  
2.69300426       1.22878133E-06  
2.69435549       9.70854479E-07  
2.69570672       2.63066343E-06  
2.69705795       9.40584678E-08  
2.69840918       1.05103851E-06  
2.69976041       3.52179280E-06  
2.70111165       2.54876010E-06  
2.70246288       1.88242460E-06  
2.70381411       3.34625240E-06  
2.70516534       5.58610656E-06  
2.70651657       9.73798416E-09  
2.70786780       1.28822204E-07  
2.70921904       2.36599329E-06  
2.71057027       3.64749191E-06  
2.71192150       2.75428728E-06  
2.71327273       1.75261685E-08  
2.71462396       4.32533728E-07  
2.71597519       8.99785461E-07  
2.71732642       7.64779794E-07  
2.71867766       1.90586782E-06  
2.72002889       3.43442245E-06  
2.72138012       1.86116318E-06  
2.72273135       1.91280256E-06  
2.72408258       3.53362519E-06  
2.72543381       3.43807930E-06  
2.72678504       3.67977504E-06  
2.72813627       2.84565326E-06  
2.72948751       2.62267766E-06  
2.73083874       3.29993234E-06  
2.73218997       1.31786698E-06  
2.73354120       1.94263046E-06  
2.73489243       2.12000309E-07  
2.73624366       2.30656309E-06  
2.73759489       3.31214625E-07  
2.73894613       4.34850693E-09  
2.74029736       6.11727029E-09  
2.74164859       2.38462202E-06  
2.74299982       1.40746790E-06  
2.74435105       2.08250671E-06  
2.74570228       4.89559909E-08  
2.74705352       2.55336514E-08  
2.74840475       1.54070738E-06  
2.74975598       5.10478751E-06  
2.75110721       4.52776126E-06  
2.75245844       6.35452445E-07  
2.75380967       3.00783937E-06  
2.75516090       3.76929877E-08  
2.75651213       6.59815828E-07  
2.75786337       1.86789930E-06  
2.75921460       2.74809764E-06  
2.76056583       6.14255452E-07  
2.76191706       5.84514704E-07  
2.76326829       7.58359792E-07  
2.76461952       7.98336724E-07  
2.76597075       2.01946357E-06  
2.76732199       9.78450780E-07  
2.76867322       1.95770124E-06  
2.77002445       2.89468815E-06  
2.77137568       6.54760192E-06  
2.77272691       6.19909896E-06  
2.77407814       4.79767939E-06  
2.77542938       5.21616191E-06  
2.77678061       4.24604662E-06  
2.77813184       3.04368374E-06  
2.77948307       3.61647533E-06  
2.78083430       3.67969757E-06  
2.78218553       4.24722060E-06  
2.78353676       4.30840800E-06  
2.78488800       2.39759865E-06  
2.78623923       4.07847140E-06  
2.78759046       5.26169891E-06  
2.78894169       1.93708767E-06  
2.79029292       2.81795953E-06  
2.79164415       2.95574148E-06  
2.79299538       9.55192892E-07  
2.79434661       6.61581682E-06  
2.79569785       5.03646551E-06  
2.79704908       2.35065991E-06  
2.79840031       1.15988517E-06  
2.79975154       5.29897051E-08  
2.80110277       4.35756718E-09  
2.80245400       3.00938600E-06  
2.80380524       4.30816913E-06  
2.80515647       4.20191993E-06  
2.80650770       6.70836722E-07  
2.80785893       4.36109945E-09  
2.80921016       1.17054228E-06  
2.81056139       1.63471918E-06  
2.81191262       2.65946268E-06  
2.81326386       1.79089059E-06  
2.81461509       2.77228168E-06  
2.81596632       5.43007189E-06  
2.81731755       2.79801699E-06  
2.81866878       3.34532218E-06  
2.82002001       6.14951390E-06  
2.82137124       3.07961261E-06  
2.82272247       5.35138633E-06  
2.82407371       4.52534833E-06  
2.82542494       5.16697176E-06  
2.82677617       4.38816829E-06  
2.82812740       2.77417318E-06  
2.82947863       1.06023665E-06  
2.83082986       1.97082639E-06  
2.83218109       4.96159671E-06  
2.83353233       2.89259700E-06  
2.83488356       2.45189309E-06  
2.83623479       3.99129275E-06  
2.83758602       1.21481529E-05  
2.83893725       1.06212608E-05  
2.84028848       5.81634357E-06  
2.84163972       6.98028621E-07  
2.84299095       2.60774260E-06  
2.84434218       5.17400382E-06  
2.84569341       9.76884767E-06  
2.84704464       6.00416072E-06  
2.84839587       2.24730211E-06  
2.84974710       5.69515206E-06  
2.85109834       8.92957493E-06  
2.85244957       5.48542911E-06  
2.85380080       1.07131732E-06  
2.85515203       1.12760354E-06  
2.85650326       1.25067594E-06  
2.85785449       1.60618116E-07  
2.85920572       3.77644580E-06  
2.86055696       1.16858580E-06  
2.86190819       1.29377447E-06  
2.86325942       2.29012314E-06  
2.86461065       4.79865732E-06  
2.86596188       1.19429948E-06  
2.86731311       1.45641387E-06  
2.86866434       9.58934613E-07  
2.87001558       3.51856218E-07  
