# F405N filter 
# Wavelength [microns]  |  Transmission efficiency
2.00046639       3.32129871E-15  
2.00207448       2.93632962E-16  
2.00368257       1.03546698E-16  
2.00529066       4.64266132E-16  
2.00689875       3.22318004E-15  
2.00850685       3.71543553E-15  
2.01011494       4.93068298E-15  
2.01172303       8.72637396E-15  
2.01333112       1.47550979E-14  
2.01493921       2.28074470E-14  
2.01654731       3.08819398E-14  
2.01815540       3.62064838E-14  
2.01976349       3.99740163E-14  
2.02137158       4.24246161E-14  
2.02297967       4.26119402E-14  
2.02458777       4.02713459E-14  
2.02619586       3.94371410E-14  
2.02780395       3.92916437E-14  
2.02941204       3.79772509E-14  
2.03102013       3.60854795E-14  
2.03262822       3.47937717E-14  
2.03423632       3.34405510E-14  
2.03584441       3.24616646E-14  
2.03745250       3.15438288E-14  
2.03906059       2.79103048E-14  
2.04066868       2.39255845E-14  
2.04227678       1.80544152E-14  
2.04388487       1.29736309E-14  
2.04549296       6.85734605E-15  
2.04710105       3.23287260E-15  
2.04870914       2.25151721E-15  
2.05031724       1.86371963E-15  
2.05192533       4.33272938E-16  
2.05353342       1.20976838E-16  
2.05514151       1.20980446E-16  
2.05674960       3.37071911E-16  
2.05835770       4.87633235E-16  
2.05996579       3.94189586E-16  
2.06157388       2.18053287E-16  
2.06318197       1.08595953E-16  
2.06479006       1.57958818E-16  
2.06639816       5.99013810E-16  
2.06800625       2.27774402E-16  
2.06961434       7.81263643E-18  
2.07122243       9.88427843E-18  
2.07283052       4.47252898E-16  
2.07443862       1.68525641E-15  
2.07604671       4.98558643E-16  
2.07765480       4.18033520E-16  
2.07926289       1.38013775E-15  
2.08087098       3.37095472E-15  
2.08247908       2.77980466E-15  
2.08408717       2.38682534E-15  
2.08569526       2.43164287E-15  
2.08730335       3.17297750E-15  
2.08891144       5.51536921E-15  
2.09051954       7.91121980E-15  
2.09212763       2.16779077E-15  
2.09373572       1.11809256E-15  
2.09534381       3.19718338E-15  
2.09695190       1.25686154E-14  
2.09856000       6.91195384E-15  
2.10016809       4.26257095E-15  
2.10177618       6.95058372E-15  
2.10338427       1.83736222E-14  
2.10499236       2.24407722E-14  
2.10660045       2.04581022E-14  
2.10820855       2.15896512E-14  
2.10981664       2.53605915E-14  
2.11142473       3.12621482E-14  
2.11303282       3.49238086E-14  
2.11464091       2.04261394E-14  
2.11624901       5.55691409E-15  
2.11785710       3.63560007E-15  
2.11946519       1.46544841E-14  
2.12107328       1.00106880E-13  
2.12268137       2.77717299E-15  
2.12428947       7.58114424E-17  
2.12589756       7.04357179E-16  
2.12750565       2.01576014E-14  
2.12911374       2.98374894E-14  
2.13072183       1.85958674E-14  
2.13232993       1.99240592E-14  
2.13393802       3.55500162E-14  
2.13554611       6.39937132E-14  
2.13715420       6.13770175E-14  
2.13876229       5.24737208E-14  
2.14037039       2.83265655E-14  
2.14197848       1.81402336E-14  
2.14358657       2.53690874E-14  
2.14519466       4.42852141E-14  
2.14680275       1.73267189E-14  
2.14841085       6.18693738E-15  
2.15001894       5.97934052E-15  
2.15162703       1.41775821E-14  
2.15323512       1.27447181E-14  
2.15484321       4.81058932E-16  
2.15645131       4.01309058E-17  
2.15805940       9.65794447E-16  
2.15966749       2.52131406E-14  
2.16127558       2.66342687E-14  
2.16288367       1.91403318E-14  
2.16449177       8.11385666E-15  
2.16609986       3.29896575E-15  
2.16770795       2.85192573E-15  
2.16931604       7.40212975E-15  
2.17092413       1.66781544E-14  
2.17253222       8.43815249E-16  
2.17414032       4.42024552E-17  
2.17574841       6.39402394E-16  
2.17735650       1.78232987E-14  
2.17896459       7.38483899E-15  
2.18057269       2.88132097E-16  
2.18218078       1.21323840E-16  
2.18378887       2.95008089E-15  
2.18539696       5.19011936E-14  
2.18700505       3.71924613E-14  
2.18861314       3.39862710E-14  
2.19022124       3.32519671E-14  
2.19182933       3.60921604E-14  
2.19343742       5.23970662E-14  
2.19504551       6.24002626E-14  
2.19665360       4.00081387E-14  
2.19826170       1.94156849E-15  
2.19986979       9.59341275E-17  
2.20147788       1.28631238E-15  
2.20308597       3.64769156E-14  
2.20469406       2.59283261E-14  
2.20630216       1.09794035E-15  
2.20791025       2.16299857E-16  
2.20951834       5.32185430E-15  
2.21112643       1.31486940E-13  
2.21273452       1.23566887E-14  
2.21434262       6.48311511E-16  
2.21595071       3.91274488E-16  
2.21755880       3.93624934E-15  
2.21916689       3.78195679E-14  
2.22077498       9.21193161E-14  
2.22238308       2.54935190E-13  
2.22399117       1.94615210E-13  
2.22559926       1.34212175E-13  
2.22720735       1.49916443E-13  
2.22881544       3.03528391E-13  
2.23042353       8.46234675E-13  
2.23203163       1.50597296E-13  
2.23363972       4.69896520E-14  
2.23524781       9.20895879E-14  
2.23685590       4.31122169E-13  
2.23846400       9.27810716E-13  
2.24007209       2.71077333E-13  
2.24168018       1.14866001E-13  
2.24328827       1.01496337E-13  
2.24489636       1.44226148E-13  
2.24650445       2.08402095E-13  
2.24811255       2.00698097E-13  
2.24972064       1.73445319E-13  
2.25132873       2.73972568E-14  
2.25293682       1.58354439E-13  
2.25454491       5.30190394E-13  
2.25615301       1.06359013E-12  
2.25776110       1.96685501E-12  
2.25936919       4.33256992E-13  
2.26097728       1.42191804E-13  
2.26258537       4.03520937E-13  
2.26419347       2.23318716E-12  
2.26580156       2.95043722E-12  
2.26740965       1.45611249E-13  
2.26901774       7.84830846E-15  
2.27062583       4.98166164E-14  
2.27223393       7.85121074E-13  
2.27384202       2.08807829E-12  
2.27545011       9.57390769E-13  
2.27705820       5.91745062E-13  
2.27866629       7.77952062E-14  
2.28027439       1.34881655E-14  
2.28188248       2.80189321E-14  
2.28349057       4.39916043E-13  
2.28509866       7.21966875E-12  
2.28670675       2.90815184E-12  
2.28831484       3.76878454E-12  
2.28992294       1.26114349E-12  
2.29153103       6.92842305E-13  
2.29313912       1.35797926E-11  
2.29474721       9.93625095E-13  
2.29635531       1.51199723E-12  
2.29796340       6.38441655E-12  
2.29957149       4.07989809E-12  
2.30117958       8.95512615E-12  
2.30278767       4.43093873E-12  
2.30439577       7.04966265E-12  
2.30600386       1.01178514E-11  
2.30761195       9.22980084E-12  
2.30922004       8.47102452E-12  
2.31082813       1.26510154E-12  
2.31243622       2.00250290E-12  
2.31404432       6.69115586E-12  
2.31565241       1.52387073E-12  
2.31726050       1.62233922E-11  
2.31886859       6.44687483E-12  
2.32047668       7.45410646E-12  
2.32208478       6.54869738E-11  
2.32369287       6.30731930E-12  
2.32530096       3.13709087E-11  
2.32690905       2.83820537E-11  
2.32851714       1.40666434E-11  
2.33012524       2.59072790E-10  
2.33173333       1.70054732E-10  
2.33334142       1.41611838E-10  
2.33494951       1.18851289E-10  
2.33655760       9.67758321E-11  
2.33816570       1.15590258E-10  
2.33977379       1.35344060E-10  
2.34138188       1.34658895E-10  
2.34298997       1.04155489E-10  
2.34459806       9.34993211E-12  
2.34620616       9.37074195E-13  
2.34781425       9.70426309E-13  
2.34942234       1.27113016E-11  
2.35103043       1.85961356E-10  
2.35263852       3.03366729E-11  
2.35424662       2.23051957E-12  
2.35585471       6.00861407E-13  
2.35746280       8.14683430E-12  
2.35907089       1.18770715E-10  
2.36067898       1.03918960E-10  
2.36228708       7.63368377E-12  
2.36389517       6.06376205E-13  
2.36550326       3.86129451E-12  
2.36711135       5.09753975E-11  
2.36871944       3.46583288E-10  
2.37032753       2.48601334E-10  
2.37193563       2.99350858E-10  
2.37354372       1.87131278E-10  
2.37515181       6.65708166E-11  
2.37675990       2.65075236E-11  
2.37836800       4.72829403E-11  
2.37997609       1.37309966E-10  
2.38158418       4.11527899E-10  
2.38319227       2.67175155E-11  
2.38480036       1.87437718E-12  
2.38640845       9.60930784E-13  
2.38801655       1.16205930E-11  
2.38962464       1.62605308E-10  
2.39123273       7.70791453E-11  
2.39284082       5.52303260E-12  
2.39444891       5.24405628E-13  
2.39605701       2.85455402E-12  
2.39766510       2.47967779E-11  
2.39927319       1.15698361E-10  
2.40088128       1.28582843E-11  
2.40248937       1.52745085E-12  
2.40409747       6.17286484E-13  
2.40570556       2.79069914E-12  
2.40731365       1.94299278E-11  
2.40892174       6.06529681E-11  
2.41052983       1.22052473E-10  
2.41213793       3.69952240E-10  
2.41374602       5.71979418E-11  
2.41535411       4.74606549E-12  
2.41696220       5.25361082E-13  
2.41857029       7.58899434E-12  
2.42017839       1.09178539E-10  
2.42178648       4.05307205E-10  
2.42339457       2.82228289E-11  
2.42500266       1.97024052E-12  
2.42661075       1.15266759E-12  
2.42821884       1.56872074E-11  
2.42982694       2.41001323E-10  
2.43143503       1.22601210E-10  
2.43304312       7.99967301E-12  
2.43465121       6.53990259E-13  
2.43625931       1.30703070E-12  
2.43786740       7.40485684E-12  
2.43947549       4.82259912E-11  
2.44108358       8.29624587E-11  
2.44269167       1.64148370E-10  
2.44429977       3.95781830E-10  
2.44590786       3.37052831E-11  
2.44751595       2.91696881E-12  
2.44912404       8.18380101E-13  
2.45073213       1.11510284E-11  
2.45234022       1.52036958E-10  
2.45394832       3.90559894E-10  
2.45555641       6.10569086E-11  
2.45716450       1.23204894E-11  
2.45877259       1.07689589E-11  
2.46038068       4.95036047E-11  
2.46198878       3.12776046E-10  
2.46359687       1.78704622E-10  
2.46520496       1.38513629E-11  
2.46681305       1.08327081E-12  
2.46842114       1.77804519E-12  
2.47002924       2.03757601E-11  
2.47163733       2.59547758E-10  
2.47324542       4.75848906E-10  
2.47485351       4.49422367E-10  
2.47646160       4.24766080E-10  
2.47806970       1.98345168E-10  
2.47967779       9.01426639E-11  
2.48128588       4.29262358E-11  
2.48289397       8.62907359E-11  
2.48450206       2.42549868E-10  
2.48611015       1.10620938E-09  
2.48771825       1.09942268E-10  
2.48932634       7.81421416E-12  
2.49093443       5.65795047E-13  
2.49254252       6.29394684E-12  
2.49415062       8.63409649E-11  
2.49575871       2.15907275E-09  
2.49736680       2.49765699E-10  
2.49897489       2.41074318E-11  
2.49977816       2.20528038E-12  
2.50058298       2.52204893E-11  
2.50112939       3.84900366E-09  
2.50219108       2.75416352E-09  
2.50248062       3.05097400E-09  
2.50383186       4.27138998E-09  
2.50518309       3.38018037E-09  
2.50653432       5.17135900E-09  
2.50788555       1.36023941E-09  
2.50923678       1.89256610E-09  
2.51058801       5.38392302E-09  
2.51193924       5.64678653E-09  
2.51329048       5.54389192E-09  
2.51464171       3.12564185E-09  
2.51599294       2.98952590E-09  
2.51734417       1.64322003E-09  
2.51869540       3.61440428E-09  
2.52004663       3.27319956E-09  
2.52139786       1.51143664E-09  
2.52274910       1.48311837E-09  
2.52410033       6.05507555E-10  
2.52545156       1.36531240E-09  
2.52680279       8.39405762E-10  
2.52815402       1.82674541E-09  
2.52950525       3.51056759E-09  
2.53085648       1.70027385E-09  
2.53220772       8.41444537E-11  
2.53355895       3.87366635E-10  
2.53491018       1.40487608E-09  
2.53626141       2.76008325E-09  
2.53761264       1.96531457E-09  
2.53896387       7.31013050E-10  
2.54031511       5.86739353E-10  
2.54166634       2.76960467E-10  
2.54301757       4.15964127E-10  
2.54436880       2.72861642E-10  
2.54572003       4.83568259E-10  
2.54707126       4.99981521E-10  
2.54842249       1.28442569E-11  
2.54977373       1.91518922E-10  
2.55112496       4.35861267E-10  
2.55247619       6.86793889E-10  
2.55382742       3.59021950E-10  
2.55517865       2.17874020E-10  
2.55652988       3.52098126E-10  
2.55788111       8.34751573E-11  
2.55923234       6.23178442E-11  
2.56058358       1.07432682E-10  
2.56193481       9.69090897E-11  
2.56328604       2.64398456E-10  
2.56463727       1.56558922E-10  
2.56598850       1.61268936E-10  
2.56733973       1.18411583E-10  
2.56869096       6.51900243E-11  
2.57004220       4.65069479E-11  
2.57139343       4.34508166E-11  
2.57274466       4.18429872E-11  
2.57409589       1.42619671E-10  
2.57544712       8.80206912E-11  
2.57679835       3.81388330E-11  
2.57814959       2.97414624E-11  
2.57950082       3.11993299E-11  
2.58085205       3.63184129E-11  
2.58220328       3.29590726E-11  
2.58355451       3.74964449E-11  
2.58490574       1.79095210E-11  
2.58625697       2.00320324E-11  
2.58760820       2.17893815E-11  
2.58895944       1.92605165E-11  
2.59031067       1.61835920E-11  
2.59166190       1.60779047E-11  
2.59301313       1.63454838E-12  
2.59436436       1.39906116E-11  
2.59571559       4.74501293E-13  
2.59706682       1.19056166E-11  
2.59841806       1.48912454E-11  
2.59976929       1.12982038E-11  
2.60112052       1.13664595E-11  
2.60247175       5.49746833E-14  
2.60382298       6.06710084E-12  
2.60517421       2.54114408E-11  
2.60652545       1.73532702E-11  
2.60787668       1.45214772E-11  
2.60922791       3.22516832E-11  
2.61057914       5.28909686E-11  
2.61193037       1.27945927E-11  
2.61328160       1.35468433E-11  
2.61463283       3.24413087E-11  
2.61598407       1.72306629E-11  
2.61733530       2.09968768E-11  
2.61868653       9.71792962E-12  
2.62003776       6.36115082E-14  
2.62138899       8.80050902E-15  
2.62274022       2.45921537E-12  
2.62409145       2.72113728E-12  
2.62544268       3.66182525E-12  
2.62679392       4.74508347E-12  
2.62814515       7.46450192E-14  
2.62949638       3.13230389E-13  
2.63084761       7.73405072E-12  
2.63219884       5.52645595E-14  
2.63355007       7.52804310E-12  
2.63490131       1.66045457E-11  
2.63625254       2.65390957E-11  
2.63760377       1.16557695E-11  
2.63895500       2.91805294E-11  
2.64030623       3.82039384E-11  
2.64165746       2.36230029E-11  
2.64300869       9.91660871E-12  
2.64435993       2.29048362E-11  
2.64571116       8.21452471E-12  
2.64706239       8.91109771E-12  
2.64841362       8.16306247E-13  
2.64976485       3.07513401E-12  
2.65111608       3.08443742E-12  
2.65246731       1.25657552E-11  
2.65381855       1.03047210E-11  
2.65516978       1.11054058E-11  
2.65652101       1.08709375E-11  
2.65787224       6.63325458E-12  
2.65922347       6.71615305E-13  
2.66057470       5.68476022E-12  
2.66192593       1.29265385E-11  
2.66327717       2.75179519E-11  
2.66462840       1.78689546E-11  
2.66597963       1.60557045E-11  
2.66733086       1.78176091E-13  
2.66868209       7.06443862E-12  
2.67003332       1.31852695E-11  
2.67138455       9.98694960E-12  
2.67273579       1.40047338E-11  
2.67408702       6.34971209E-12  
2.67543825       5.52855593E-12  
2.67678948       6.03182049E-12  
2.67814071       9.60721406E-12  
2.67949194       1.04425934E-11  
2.68084317       8.67065112E-12  
2.68219441       5.65337353E-12  
2.68354564       1.08498245E-12  
2.68489687       1.20880681E-12  
2.68624810       5.91105774E-12  
2.68759933       5.65876323E-12  
2.68895056       3.11875135E-12  
2.69030179       5.26828654E-12  
2.69165303       1.49628910E-13  
2.69300426       1.21535945E-12  
2.69435549       1.88571569E-12  
2.69570672       9.02002217E-13  
2.69705795       2.25090326E-12  
2.69840918       1.88284361E-12  
2.69976041       3.16692279E-12  
2.70111165       1.88788533E-12  
2.70246288       3.74447518E-12  
2.70381411       6.54958948E-12  
2.70516534       3.03002536E-12  
2.70651657       2.11705567E-14  
2.70786780       2.05024222E-13  
2.70921904       3.82743550E-12  
2.71057027       4.20665813E-12  
2.71192150       4.49412465E-12  
2.71327273       4.47246069E-13  
2.71462396       7.18310977E-15  
2.71597519       1.21202554E-14  
2.71732642       5.59375497E-12  
2.71867766       7.27655788E-13  
2.72002889       8.60929654E-14  
2.72138012       3.91906968E-12  
2.72273135       1.58997700E-12  
2.72408258       5.78474976E-12  
2.72543381       1.00691887E-12  
2.72678504       4.10611398E-14  
2.72813627       2.27804665E-12  
2.72948751       1.18959483E-12  
2.73083874       4.35171283E-12  
2.73218997       1.27487319E-12  
2.73354120       1.37979799E-12  
2.73489243       4.44220411E-12  
2.73624366       8.89559867E-12  
2.73759489       2.95134619E-12  
2.73894613       3.48468179E-13  
2.74029736       5.36811340E-13  
2.74164859       1.90239670E-13  
2.74299982       1.36470467E-12  
2.74435105       3.37051741E-12  
2.74570228       1.93449755E-12  
2.74705352       1.07746579E-12  
2.74840475       1.22238660E-12  
2.74975598       6.51265645E-13  
2.75110721       8.62992622E-14  
2.75245844       8.55882153E-13  
2.75380967       1.07939697E-13  
2.75516090       4.74699666E-12  
2.75651213       2.47706820E-12  
2.75786337       5.35801429E-12  
2.75921460       5.92204980E-12  
2.76056583       9.34525519E-12  
2.76191706       1.76948496E-12  
2.76326829       4.41671717E-12  
2.76461952       1.78037826E-12  
2.76597075       1.75223389E-12  
2.76732199       1.89801211E-12  
2.76867322       4.87696283E-13  
2.77002445       1.36996234E-13  
2.77137568       7.58992791E-13  
2.77272691       1.72949892E-12  
2.77407814       2.00152530E-12  
2.77542938       2.53590011E-13  
2.77678061       9.23972960E-14  
2.77813184       4.84590567E-15  
2.77948307       4.00825441E-14  
2.78083430       7.59857612E-12  
2.78218553       6.17183978E-12  
2.78353676       1.43161591E-12  
2.78488800       5.41986223E-14  
2.78623923       5.82213881E-13  
2.78759046       2.22292687E-14  
2.78894169       3.02275914E-12  
2.79029292       2.89131721E-12  
2.79164415       7.55512693E-12  
2.79299538       9.19942837E-12  
2.79434661       8.81199596E-12  
2.79569785       4.79673143E-12  
2.79704908       9.47026491E-13  
2.79840031       5.63083047E-15  
2.79975154       6.78152025E-15  
2.80110277       8.72287604E-13  
2.80245400       1.68514644E-12  
2.80380524       2.01928115E-13  
2.80515647       3.80953634E-12  
2.80650770       1.89338342E-12  
2.80785893       1.82936146E-12  
2.80921016       1.64299667E-14  
2.81056139       3.90843961E-13  
2.81191262       4.79648528E-12  
2.81326386       7.42269444E-12  
2.81461509       7.25707816E-12  
2.81596632       7.18699010E-12  
2.81731755       5.77721880E-12  
2.81866878       7.60687181E-13  
2.82002001       3.98883712E-15  
2.82137124       4.23400968E-15  
2.82272247       2.53775067E-14  
2.82407371       6.71589316E-13  
2.82542494       1.59677036E-12  
2.82677617       6.32586397E-13  
2.82812740       1.05739407E-12  
2.82947863       1.27209768E-13  
2.83082986       1.08706223E-14  
2.83218109       1.23807254E-12  
2.83353233       1.34033317E-12  
2.83488356       6.08160321E-12  
2.83623479       2.12002206E-12  
2.83758602       7.69644323E-13  
2.83893725       4.28783940E-13  
2.84028848       1.60505133E-12  
2.84163972       1.19332776E-12  
2.84299095       1.56171562E-14  
2.84434218       2.90843111E-15  
2.84569341       1.98439224E-15  
2.84704464       1.24710684E-13  
2.84839587       3.53194670E-13  
2.84974710       4.41586922E-13  
2.85109834       7.37327550E-14  
2.85244957       7.69000902E-13  
2.85380080       2.40933012E-14  
2.85515203       1.95330005E-12  
2.85650326       5.88338079E-12  
2.85785449       2.12031401E-12  
2.85920572       3.98630163E-13  
2.86055696       8.43372707E-13  
2.86190819       1.46064072E-13  
2.86325942       4.53085851E-15  
2.86461065       1.50025920E-14  
2.86596188       1.42049577E-12  
2.86731311       1.23792068E-13  
