# F430M filter 
# Wavelength [microns]  |  Transmission efficiency
2.00046639       1.83954930E-10  
2.00261051       1.60317143E-10  
2.00475463       1.38951791E-10  
2.00689875       1.22268511E-10  
2.00904288       1.09840586E-10  
2.01118700       1.01342528E-10  
2.01333112       9.46270918E-11  
2.01547525       8.95214212E-11  
2.01761937       8.39164144E-11  
2.01976349       7.82611392E-11  
2.02190761       7.38048619E-11  
2.02405174       6.86277532E-11  
2.02619586       6.50244948E-11  
2.02833998       6.19636262E-11  
2.03048410       5.94897721E-11  
2.03262822       5.78151697E-11  
2.03477235       5.58012356E-11  
2.03691647       5.42538731E-11  
2.03906059       5.32622328E-11  
2.04120472       5.35535271E-11  
2.04334884       5.37011389E-11  
2.04549296       5.43146259E-11  
2.04763708       5.53674217E-11  
2.04978121       5.75700046E-11  
2.05192533       5.97253048E-11  
2.05406945       6.29694478E-11  
2.05621357       6.61740730E-11  
2.05835770       7.03930223E-11  
2.06050182       7.43499720E-11  
2.06264594       7.88979161E-11  
2.06479006       8.47296517E-11  
2.06693419       9.19157346E-11  
2.06907831       1.00441347E-10  
2.07122243       1.10554957E-10  
2.07336656       1.23447337E-10  
2.07551068       1.41072818E-10  
2.07765480       1.61937093E-10  
2.07979892       1.90432340E-10  
2.08194305       2.24713403E-10  
2.08408717       2.68984791E-10  
2.08623129       3.24006554E-10  
2.08837541       3.89665478E-10  
2.09051954       4.54024921E-10  
2.09266366       5.33208624E-10  
2.09480778       5.89202233E-10  
2.09695190       6.45803157E-10  
2.09909603       6.88117182E-10  
2.10124015       7.19513474E-10  
2.10338427       7.37323129E-10  
2.10552839       7.07655754E-10  
2.10767252       6.68212349E-10  
2.10981664       6.05057664E-10  
2.11196076       5.30506775E-10  
2.11410488       4.33867480E-10  
2.11624901       3.38588429E-10  
2.11839313       2.64729858E-10  
2.12053725       2.33374386E-10  
2.12268137       2.09046406E-10  
2.12482550       1.82283365E-10  
2.12696962       1.60031918E-10  
2.12911374       1.19444415E-10  
2.13125787       8.49057492E-11  
2.13340199       6.85371883E-11  
2.13554611       6.55843261E-11  
2.13769023       7.71353843E-11  
2.13983436       7.84142787E-11  
2.14197848       7.95576006E-11  
2.14412260       8.61107649E-11  
2.14626672       9.38741305E-11  
2.14841085       1.09317291E-10  
2.15055497       9.29348204E-11  
2.15269909       8.05177587E-11  
2.15484321       7.18281227E-11  
2.15698734       7.78368115E-11  
2.15913146       1.05526868E-10  
2.16127558       1.16402190E-10  
2.16341970       1.28765253E-10  
2.16556383       1.36128461E-10  
2.16770795       1.44834073E-10  
2.16985207       1.33397267E-10  
2.17199619       1.03064212E-10  
2.17414032       8.99678584E-11  
2.17628444       7.91233130E-12  
2.17842856       4.98816386E-13  
2.18057269       2.59020810E-13  
2.18271681       2.13772820E-12  
2.18486093       2.84801130E-11  
2.18700505       4.24776526E-12  
2.18914917       1.23573922E-12  
2.19129330       3.63069837E-12  
2.19343742       1.61324618E-11  
2.19558154       7.38832415E-11  
2.19772567       2.52494050E-11  
2.19986979       1.91462647E-11  
2.20201391       5.76486706E-11  
2.20415803       1.20721860E-10  
2.20630216       2.85001481E-10  
2.20844628       3.49480498E-10  
2.21059040       4.38998036E-10  
2.21273452       4.11496944E-10  
2.21487865       3.46725757E-10  
2.21702277       3.88566236E-10  
2.21916689       2.78703545E-10  
2.22131101       2.56523310E-10  
2.22345514       3.03459260E-10  
2.22559926       3.60545394E-10  
2.22774338       5.36699174E-10  
2.22988751       6.66652654E-10  
2.23203163       8.23738390E-10  
2.23417575       7.61350977E-10  
2.23631987       4.28823929E-10  
2.23846400       2.48628147E-10  
2.24060812       5.86785760E-11  
2.24275224       6.84646074E-11  
2.24489636       1.69496020E-10  
2.24704048       3.51875172E-11  
2.24918461       1.17624129E-11  
2.25132873       1.12860957E-11  
2.25347285       1.35400846E-11  
2.25561698       1.82488325E-11  
2.25776110       1.29596352E-10  
2.25990522       1.81445401E-09  
2.26204934       6.71236622E-09  
2.26419347       7.45082671E-09  
2.26633759       8.13259555E-09  
2.26848171       9.33641891E-09  
2.27062583       1.14356011E-08  
2.27276996       1.51423217E-08  
2.27491408       1.31795405E-08  
2.27705820       1.17851041E-08  
2.27920232       9.74552871E-09  
2.28134645       8.19704129E-09  
2.28349057       8.75924510E-09  
2.28563469       9.18615834E-09  
2.28777882       1.18105045E-08  
2.28992294       8.19847148E-09  
2.29206706       4.45575560E-09  
2.29421118       3.14693065E-09  
2.29635531       5.31171455E-09  
2.29849943       1.12073223E-08  
2.30064355       2.24324856E-08  
2.30278767       2.37318090E-08  
2.30493180       2.95241823E-08  
2.30707592       3.71835887E-08  
2.30922004       4.64949663E-08  
2.31136416       5.90267175E-08  
2.31350829       9.22117212E-09  
2.31565241       1.26749781E-09  
2.31779653       7.01787111E-10  
2.31994065       7.08086787E-09  
2.32208478       8.93690406E-08  
2.32422890       3.22469768E-07  
2.32637302       3.57841581E-07  
2.32851714       4.33271293E-07  
2.33066127       7.40903471E-08  
2.33280539       8.98990917E-09  
2.33494951       2.16894932E-09  
2.33709364       2.38187870E-09  
2.33923776       2.55645215E-09  
2.34138188       2.67886064E-09  
2.34352600       2.75491573E-09  
2.34567013       2.79769294E-09  
2.34781425       2.82419618E-09  
2.34995837       2.85042651E-09  
2.35210249       2.88964740E-09  
2.35424662       2.95043045E-09  
2.35639074       3.03546682E-09  
2.35853486       4.03059852E-09  
2.36067898       3.25286900E-08  
2.36282311       3.32416547E-07  
2.36496723       1.39970796E-06  
2.36711135       1.43485043E-06  
2.36925547       1.46965109E-06  
2.37139960       8.30252514E-07  
2.37354372       4.52587107E-07  
2.37568784       2.79744076E-07  
2.37783196       6.03415500E-08  
2.37997609       3.62021672E-08  
2.38212021       1.11681732E-07  
2.38426433       3.78665233E-08  
2.38640845       1.30384125E-07  
2.38855258       6.84957996E-07  
2.39069670       9.42113961E-07  
2.39284082       1.32378508E-06  
2.39498495       5.68189011E-07  
2.39712907       5.63867125E-08  
2.39927319       7.53701374E-09  
2.40141731       7.50810732E-09  
2.40356143       3.56160845E-08  
2.40570556       2.31315855E-07  
2.40784968       4.63429256E-07  
2.40999380       7.24791570E-07  
2.41213793       1.65194751E-06  
2.41428205       1.81104749E-06  
2.41642617       1.87384719E-06  
2.41857029       1.88264555E-06  
2.42071442       1.41455298E-06  
2.42285854       1.27435246E-06  
2.42500266       2.04428374E-06  
2.42714678       1.87195034E-06  
2.42929091       1.76494833E-06  
2.43143503       1.80376543E-06  
2.43357915       2.09925649E-06  
2.43572327       2.56178342E-06  
2.43786740       1.63921304E-06  
2.44001152       6.39714792E-07  
2.44215564       3.39154311E-07  
2.44429977       3.67470681E-07  
2.44644389       7.20190269E-07  
2.44858801       1.96798524E-06  
2.45073213       2.51210080E-06  
2.45287626       2.58801468E-06  
2.45502038       2.99959878E-06  
2.45716450       2.97179216E-06  
2.45930862       2.86306297E-06  
2.46145274       2.78663078E-06  
2.46359687       1.88284370E-06  
2.46574099       1.18835817E-06  
2.46788511       8.22208131E-07  
2.47002924       1.48962985E-07  
2.47217336       6.86866050E-08  
2.47431748       3.10866255E-07  
2.47646160       5.40470798E-07  
2.47860573       9.23888773E-07  
2.48074985       2.13960426E-06  
2.48289397       2.02616182E-06  
2.48503809       1.87801842E-06  
2.48718222       1.77348608E-06  
2.48932634       2.23650212E-06  
2.49147046       2.98811620E-06  
2.49361458       4.36778993E-06  
2.49575871       2.55501628E-06  
2.49790283       1.90729853E-06  
2.50004695       1.13754645E-06  
2.50219108       1.70563917E-06  
2.50383186       6.71719124E-07  
2.50518309       1.43640013E-06  
2.50653432       4.35083336E-09  
2.50788555       1.13397777E-06  
2.50923678       1.02929996E-06  
2.51058801       2.20599580E-06  
2.51193924       2.35466945E-06  
2.51329048       1.44269196E-08  
2.51464171       1.40890180E-07  
2.51599294       2.25878283E-07  
2.51734417       4.32646041E-09  
2.51869540       5.83237530E-07  
2.52004663       1.81646345E-06  
2.52139786       5.45210865E-08  
2.52274910       8.88645615E-07  
2.52410033       4.59112189E-09  
2.52545156       2.52056232E-07  
2.52680279       3.09319613E-07  
2.52815402       6.96296895E-07  
2.52950525       7.42586649E-07  
2.53085648       3.00493905E-07  
2.53220772       5.99538953E-09  
2.53355895       1.56629125E-06  
2.53491018       3.98905496E-06  
2.53626141       6.80480863E-07  
2.53761264       1.00466233E-06  
2.53896387       1.01910212E-08  
2.54031511       1.44558861E-06  
2.54166634       1.00179433E-07  
2.54301757       2.77016581E-06  
2.54436880       2.37573791E-07  
2.54572003       1.94677248E-06  
2.54707126       2.94739500E-06  
2.54842249       3.42857974E-06  
2.54977373       1.81580669E-06  
2.55112496       3.95154276E-08  
2.55247619       4.82230283E-07  
2.55382742       2.39907626E-06  
2.55517865       2.40993003E-06  
2.55652988       2.61237114E-06  
2.55788111       7.86647022E-07  
2.55923234       1.19006247E-06  
2.56058358       6.54316741E-06  
2.56193481       5.43548831E-06  
2.56328604       3.85892656E-06  
2.56463727       3.62168928E-06  
2.56598850       3.31106220E-06  
2.56733973       3.53096489E-06  
2.56869096       1.40574092E-06  
2.57004220       1.39762352E-06  
2.57139343       2.54095889E-06  
2.57274466       5.66822626E-06  
2.57409589       5.08854900E-06  
2.57544712       2.65712683E-07  
2.57679835       1.68215185E-06  
2.57814959       5.81650950E-07  
2.57950082       1.01479303E-06  
2.58085205       1.60106512E-06  
2.58220328       1.90836803E-06  
2.58355451       1.16350156E-06  
2.58490574       3.13627614E-06  
2.58625697       3.55095367E-06  
2.58760820       2.56139153E-06  
2.58895944       5.28224966E-06  
2.59031067       4.32304868E-06  
2.59166190       4.12055733E-06  
2.59301313       6.97540655E-06  
2.59436436       5.83199492E-06  
2.59571559       6.18126241E-07  
2.59706682       8.86225574E-07  
2.59841806       4.22949682E-06  
2.59976929       4.44732889E-06  
2.60112052       3.36860560E-06  
2.60247175       3.60267199E-06  
2.60382298       7.66715703E-06  
2.60517421       7.41463411E-06  
2.60652545       7.37899507E-07  
2.60787668       3.59617556E-06  
2.60922791       3.02444652E-06  
2.61057914       2.06623907E-06  
2.61193037       3.87170727E-06  
2.61328160       4.29227095E-06  
2.61463283       5.03681578E-06  
2.61598407       5.85175388E-06  
2.61733530       6.50804960E-06  
2.61868653       3.01206599E-06  
2.62003776       2.93300667E-06  
2.62138899       7.38678255E-06  
2.62274022       9.45356351E-06  
2.62409145       6.77171063E-06  
2.62544268       6.35029288E-06  
2.62679392       6.47820297E-06  
2.62814515       2.51325637E-06  
2.62949638       4.14380605E-06  
2.63084761       5.13609150E-06  
2.63219884       7.17035142E-06  
2.63355007       1.82261359E-06  
2.63490131       3.25239442E-06  
2.63625254       7.65282679E-06  
2.63760377       1.44336116E-06  
2.63895500       2.92117343E-06  
2.64030623       2.81687244E-06  
2.64165746       5.33975897E-06  
2.64300869       5.30089598E-06  
2.64435993       4.88673273E-06  
2.64571116       3.69685583E-06  
2.64706239       3.15214031E-06  
2.64841362       2.67534803E-06  
2.64976485       1.87076938E-06  
2.65111608       1.61957151E-06  
2.65246731       2.29702757E-06  
2.65381855       3.28519188E-06  
2.65516978       2.27382462E-06  
2.65652101       6.26924119E-06  
2.65787224       2.78547476E-06  
2.65922347       3.79896142E-06  
2.66057470       4.73112812E-06  
2.66192593       5.02207427E-06  
2.66327717       3.95371614E-06  
2.66462840       1.60207146E-06  
2.66597963       2.32380788E-06  
2.66733086       1.32774069E-06  
2.66868209       5.38255173E-06  
2.67003332       5.68920510E-06  
2.67138455       4.22647867E-06  
2.67273579       3.82126518E-06  
2.67408702       3.87104799E-06  
2.67543825       4.56132508E-06  
2.67678948       3.28600008E-06  
2.67814071       5.83866550E-06  
2.67949194       5.33632254E-06  
2.68084317       3.07461103E-06  
2.68219441       1.82913550E-06  
2.68354564       5.16116789E-07  
2.68489687       2.77328763E-06  
2.68624810       1.25069839E-06  
2.68759933       1.34761673E-06  
2.68895056       2.21085494E-06  
2.69030179       3.84051002E-06  
2.69165303       3.55989811E-06  
2.69300426       2.83555802E-06  
2.69435549       1.52261947E-06  
2.69570672       3.03713584E-06  
2.69705795       3.14567111E-06  
2.69840918       3.39235954E-06  
2.69976041       3.17290663E-06  
2.70111165       2.41467847E-07  
2.70246288       9.56276500E-07  
2.70381411       3.18275737E-06  
2.70516534       8.99028267E-07  
2.70651657       2.68539904E-06  
2.70786780       5.98027961E-06  
2.70921904       3.59170095E-06  
2.71057027       3.48966441E-06  
2.71192150       1.67774490E-06  
2.71327273       2.42870922E-06  
2.71462396       5.78960913E-06  
2.71597519       4.61815466E-06  
2.71732642       5.36846209E-06  
2.71867766       3.67540072E-06  
2.72002889       5.32971107E-06  
2.72138012       5.08513381E-06  
2.72273135       2.78883683E-06  
2.72408258       2.14365366E-06  
2.72543381       2.08540896E-06  
2.72678504       3.13410468E-06  
2.72813627       2.34940902E-06  
2.72948751       3.35033247E-06  
2.73083874       3.63117507E-06  
2.73218997       2.62851356E-06  
2.73354120       4.24768540E-06  
2.73489243       1.73395006E-06  
2.73624366       1.51976709E-06  
2.73759489       1.97379243E-06  
2.73894613       3.91277178E-07  
2.74029736       1.90084820E-06  
2.74164859       2.55628627E-06  
2.74299982       1.82941258E-06  
2.74435105       1.18569010E-06  
2.74570228       2.23972844E-06  
2.74705352       2.61898482E-06  
2.74840475       2.25081938E-06  
2.74975598       2.33992064E-06  
2.75110721       1.06029845E-06  
2.75245844       2.80498099E-07  
2.75380967       2.10688445E-06  
2.75516090       1.71499393E-06  
2.75651213       2.92493318E-08  
2.75786337       5.83419656E-09  
2.75921460       4.33149212E-09  
2.76056583       4.39117879E-07  
2.76191706       3.30986088E-06  
2.76326829       4.32499052E-08  
2.76461952       4.33184095E-09  
2.76597075       2.92795238E-07  
2.76732199       2.87597275E-06  
2.76867322       6.00871563E-06  
2.77002445       5.14758966E-06  
2.77137568       3.33271806E-06  
2.77272691       9.90538226E-07  
2.77407814       2.55066283E-07  
2.77542938       7.77884543E-07  
2.77678061       1.71185332E-06  
2.77813184       1.34914164E-06  
2.77948307       8.91467131E-07  
2.78083430       2.06353495E-06  
2.78218553       1.70880079E-06  
2.78353676       7.76191870E-07  
2.78488800       6.80453781E-07  
2.78623923       3.92253034E-08  
2.78759046       9.65764889E-09  
2.78894169       2.80115538E-07  
2.79029292       1.67187181E-06  
2.79164415       1.92372263E-06  
2.79299538       1.69818138E-06  
2.79434661       3.72894640E-07  
2.79569785       2.14068592E-06  
2.79704908       6.90662970E-09  
2.79840031       9.97102396E-07  
2.79975154       4.47811872E-08  
2.80110277       4.35756718E-09  
2.80245400       4.35954926E-09  
2.80380524       4.36142800E-09  
2.80515647       8.57360235E-07  
2.80650770       4.35962310E-09  
2.80785893       5.86844278E-09  
2.80921016       3.95804208E-07  
2.81056139       1.90289330E-06  
2.81191262       2.11636524E-06  
2.81326386       4.67270189E-07  
2.81461509       4.44993458E-09  
2.81596632       4.35664363E-09  
2.81731755       3.78924035E-08  
2.81866878       1.85548011E-06  
2.82002001       1.61823326E-06  
2.82137124       5.39220369E-07  
2.82272247       9.15218129E-09  
2.82407371       1.50565439E-06  
2.82542494       2.00319180E-07  
2.82677617       4.35172741E-09  
2.82812740       4.35024171E-09  
2.82947863       4.34863309E-09  
2.83082986       6.39008841E-08  
2.83218109       6.50865175E-09  
2.83353233       4.34185167E-09  
2.83488356       5.68523903E-08  
2.83623479       7.62965558E-07  
2.83758602       7.22359615E-09  
2.83893725       4.05852093E-08  
2.84028848       1.03687322E-06  
2.84163972       3.55448794E-06  
2.84299095       1.96679062E-06  
2.84434218       6.66088498E-07  
2.84569341       1.83591590E-06  
2.84704464       2.62884719E-06  
2.84839587       1.45170476E-06  
2.84974710       7.83885705E-07  
2.85109834       1.36967203E-06  
2.85244957       1.45413418E-06  
2.85380080       2.14162331E-06  
2.85515203       1.03791023E-06  
2.85650326       4.28775838E-09  
2.85785449       4.28311370E-09  
2.85920572       6.46500752E-07  
2.86055696       1.77436721E-06  
2.86190819       6.32488950E-09  
2.86325942       4.10871952E-07  
2.86461065       8.60890084E-08  
2.86596188       4.05223979E-07  
2.86731311       6.51588420E-07  
2.86866434       1.28066107E-06  
2.87001558       4.60391390E-07  
2.87136681       4.28887049E-07  
2.87271804       4.25294879E-09  
2.87406927       9.76759246E-08  
2.87542050       2.68641827E-06  
2.87677173       1.01385088E-06  
2.87812296       4.24730635E-09  
2.87947420       4.24598283E-09  
2.88082543       4.24463201E-09  
2.88217666       4.24325532E-09  
2.88352789       4.24186270E-09  
2.88487912       4.24044378E-09  
2.88623035       4.23392295E-09  
2.88758158       4.23240844E-09  
2.88893282       1.72040123E-07  
2.89028405       2.68594937E-08  
2.89163528       4.22899155E-09  
2.89298651       4.23315424E-09  
2.89433774       4.23254846E-09  
2.89568897       1.01677674E-07  
2.89704020       4.23085656E-09  
2.89839144       1.73523932E-08  
2.89974267       4.22860032E-09  
2.90109390       1.50894239E-07  
2.90244513       3.00676215E-07  
2.90379636       1.32356609E-06  
2.90514759       1.08050837E-06  
2.90649883       3.33769474E-07  
2.90785006       1.34042700E-06  
2.90920129       9.86653664E-08  
2.91055252       1.68559612E-07  
2.91190375       2.41663867E-06  
2.91325498       1.91033051E-06  
2.91460621       1.27168026E-06  
2.91595745       4.18624524E-09  
2.91730868       4.18253407E-09  
2.91865991       5.27703689E-07  
2.92001114       4.06338515E-07  
2.92136237       4.16891138E-09  
2.92271360       4.16298746E-09  
2.92406483       4.15698788E-09  
2.92541606       4.15091736E-09  
2.92676730       4.14838466E-09  
2.92811853       4.14331107E-09  
2.92946976       4.13712532E-09  
2.93082099       4.13020492E-09  
2.93217222       4.12282225E-09  
2.93352345       4.11546299E-09  
2.93487469       4.10813883E-09  
2.93622592       4.10086899E-09  
2.93757715       8.56718183E-07  
2.93892838       1.59641626E-06  
2.94027961       3.62661390E-08  
2.94163084       4.06858556E-09  
2.94298207       9.76641053E-08  
2.94433331       1.43691043E-06  
2.94568454       4.09867529E-08  
2.94703577       1.66249085E-08  
2.94838700       4.04442443E-09  
2.94973823       1.66124273E-07  
2.95108946       1.01789461E-07  
2.95244069       4.03008560E-09  
2.95379192       4.02359713E-09  
2.95514316       6.93994898E-09  
2.95649439       1.08591056E-06  
2.95784562       4.22740691E-07  
2.95919685       4.12751207E-09  
2.96054808       3.99404401E-09  
2.96189931       3.98868004E-09  
2.96325054       3.98352259E-09  
2.96460178       3.97855299E-09  
2.96595301       1.26990337E-08  
2.96730424       9.94292205E-07  
2.96865547       1.98153273E-07  
2.97000670       3.96047517E-09  
2.97135793       9.10303751E-09  
2.97270917       9.89574508E-07  
2.97406040       7.36273217E-07  
2.97541163       3.95033448E-09  
2.97676286       3.95259572E-09  
